'sample interval','ECG'
'0.004 sec','mV'
10000,0.072
10001,0.072
10002,0.072
10003,0.080
10004,0.072
10005,0.076
10006,0.076
10007,0.082
10008,0.080
10009,0.078
10010,0.080
10011,0.084
10012,0.082
10013,0.082
10014,0.086
10015,0.086
10016,0.088
10017,0.086
10018,0.090
10019,0.092
10020,0.094
10021,0.092
10022,0.094
10023,0.096
10024,0.092
10025,0.096
10026,0.098
10027,0.098
10028,0.100
10029,0.104
10030,0.104
10031,0.108
10032,0.106
10033,0.104
10034,0.104
10035,0.106
10036,0.112
10037,0.110
10038,0.108
10039,0.108
10040,0.112
10041,0.110
10042,0.112
10043,0.112
10044,0.112
10045,0.112
10046,0.116
10047,0.112
10048,0.114
10049,0.112
10050,0.112
10051,0.108
10052,0.114
10053,0.112
10054,0.112
10055,0.112
10056,0.110
10057,0.112
10058,0.112
10059,0.112
10060,0.112
10061,0.112
10062,0.116
10063,0.112
10064,0.114
10065,0.118
10066,0.114
10067,0.114
10068,0.118
10069,0.116
10070,0.116
10071,0.114
10072,0.114
10073,0.120
10074,0.120
10075,0.118
10076,0.120
10077,0.120
10078,0.122
10079,0.118
10080,0.116
10081,0.118
10082,0.120
10083,0.120
10084,0.118
10085,0.120
10086,0.120
10087,0.120
10088,0.120
10089,0.118
10090,0.122
10091,0.126
10092,0.122
10093,0.120
10094,0.126
10095,0.126
10096,0.120
10097,0.118
10098,0.118
10099,0.116
10100,0.128
10101,0.136
10102,0.136
10103,0.136
10104,0.136
10105,0.138
10106,0.144
10107,0.150
10108,0.148
10109,0.156
10110,0.162
10111,0.164
10112,0.160
10113,0.154
10114,0.158
10115,0.156
10116,0.156
10117,0.152
10118,0.152
10119,0.150
10120,0.146
10121,0.144
10122,0.136
10123,0.134
10124,0.128
10125,0.124
10126,0.120
10127,0.120
10128,0.114
10129,0.114
10130,0.114
10131,0.110
10132,0.114
10133,0.114
10134,0.112
10135,0.110
10136,0.114
10137,0.112
10138,0.112
10139,0.112
10140,0.114
10141,0.114
10142,0.116
10143,0.114
10144,0.116
10145,0.116
10146,0.108
10147,0.094
10148,0.080
10149,0.070
10150,0.066
10151,0.090
10152,0.148
10153,0.248
10154,0.374
10155,0.508
10156,0.632
10157,0.726
10158,0.776
10159,0.658
10160,0.460
10161,0.288
10162,0.144
10163,0.092
10164,0.076
10165,0.072
10166,0.064
10167,0.064
10168,0.080
10169,0.086
10170,0.084
10171,0.080
10172,0.080
10173,0.078
10174,0.080
10175,0.080
10176,0.080
10177,0.082
10178,0.088
10179,0.084
10180,0.086
10181,0.088
10182,0.092
10183,0.090
10184,0.096
10185,0.096
10186,0.100
10187,0.096
10188,0.102
10189,0.106
10190,0.108
10191,0.110
10192,0.108
10193,0.110
10194,0.114
10195,0.112
10196,0.114
10197,0.114
10198,0.130
10199,0.122
10200,0.120
10201,0.124
10202,0.128
10203,0.128
10204,0.132
10205,0.132
10206,0.136
10207,0.140
10208,0.140
10209,0.144
10210,0.146
10211,0.152
10212,0.152
10213,0.158
10214,0.162
10215,0.164
10216,0.168
10217,0.170
10218,0.168
10219,0.176
10220,0.176
10221,0.180
10222,0.178
10223,0.182
10224,0.182
10225,0.180
10226,0.178
10227,0.178
10228,0.172
10229,0.164
10230,0.156
10231,0.152
10232,0.140
10233,0.128
10234,0.120
10235,0.110
10236,0.104
10237,0.096
10238,0.088
10239,0.084
10240,0.080
10241,0.076
10242,0.072
10243,0.070
10244,0.072
10245,0.064
10246,0.072
10247,0.074
10248,0.076
10249,0.078
10250,0.078
10251,0.076
10252,0.080
10253,0.084
10254,0.084
10255,0.080
10256,0.082
10257,0.088
10258,0.090
10259,0.084
10260,0.088
10261,0.088
10262,0.092
10263,0.090
10264,0.090
10265,0.094
10266,0.098
10267,0.092
10268,0.098
10269,0.098
10270,0.096
10271,0.096
10272,0.100
10273,0.102
10274,0.100
10275,0.104
10276,0.102
10277,0.104
10278,0.104
10279,0.104
10280,0.100
10281,0.106
10282,0.106
10283,0.108
10284,0.108
10285,0.106
10286,0.108
10287,0.110
10288,0.106
10289,0.110
10290,0.110
10291,0.110
10292,0.106
10293,0.108
10294,0.112
10295,0.112
10296,0.112
10297,0.110
10298,0.112
10299,0.112
10300,0.112
10301,0.114
10302,0.112
10303,0.112
10304,0.110
10305,0.112
10306,0.110
10307,0.112
10308,0.112
10309,0.112
10310,0.116
10311,0.116
10312,0.116
10313,0.116
10314,0.116
10315,0.120
10316,0.114
10317,0.116
10318,0.114
10319,0.116
10320,0.114
10321,0.116
10322,0.114
10323,0.118
10324,0.118
10325,0.114
10326,0.116
10327,0.120
10328,0.124
10329,0.120
10330,0.114
10331,0.120
10332,0.118
10333,0.120
10334,0.120
10335,0.120
10336,0.122
10337,0.120
10338,0.120
10339,0.120
10340,0.126
10341,0.128
10342,0.128
10343,0.132
10344,0.140
10345,0.136
10346,0.136
10347,0.140
10348,0.146
10349,0.146
10350,0.152
10351,0.158
10352,0.160
10353,0.160
10354,0.154
10355,0.152
10356,0.156
10357,0.158
10358,0.154
10359,0.152
10360,0.150
10361,0.144
10362,0.136
10363,0.132
10364,0.134
10365,0.128
10366,0.126
10367,0.118
10368,0.118
10369,0.116
10370,0.114
10371,0.112
10372,0.112
10373,0.112
10374,0.112
10375,0.112
10376,0.108
10377,0.104
10378,0.110
10379,0.112
10380,0.112
10381,0.108
10382,0.116
10383,0.114
10384,0.112
10385,0.112
10386,0.118
10387,0.108
10388,0.092
10389,0.076
10390,0.066
10391,0.068
10392,0.098
10393,0.158
10394,0.264
10395,0.394
10396,0.534
10397,0.648
10398,0.736
10399,0.754
10400,0.594
10401,0.412
10402,0.238
10403,0.120
10404,0.072
10405,0.058
10406,0.060
10407,0.054
10408,0.054
10409,0.062
10410,0.074
10411,0.082
10412,0.084
10413,0.078
10414,0.080
10415,0.084
10416,0.084
10417,0.082
10418,0.088
10419,0.088
10420,0.088
10421,0.088
10422,0.090
10423,0.094
10424,0.096
10425,0.098
10426,0.096
10427,0.102
10428,0.104
10429,0.104
10430,0.108
10431,0.110
10432,0.112
10433,0.114
10434,0.114
10435,0.120
10436,0.120
10437,0.122
10438,0.120
10439,0.122
10440,0.126
10441,0.128
10442,0.126
10443,0.128
10444,0.132
10445,0.134
10446,0.134
10447,0.138
10448,0.144
10449,0.144
10450,0.144
10451,0.148
10452,0.150
10453,0.160
10454,0.158
10455,0.160
10456,0.168
10457,0.172
10458,0.174
10459,0.174
10460,0.178
10461,0.184
10462,0.184
10463,0.182
10464,0.182
10465,0.184
10466,0.180
10467,0.176
10468,0.172
10469,0.168
10470,0.168
10471,0.152
10472,0.140
10473,0.136
10474,0.128
10475,0.114
10476,0.112
10477,0.102
10478,0.094
10479,0.090
10480,0.086
10481,0.080
10482,0.080
10483,0.080
10484,0.074
10485,0.076
10486,0.072
10487,0.072
10488,0.074
10489,0.074
10490,0.080
10491,0.080
10492,0.080
10493,0.078
10494,0.082
10495,0.084
10496,0.082
10497,0.080
10498,0.084
10499,0.082
10500,0.082
10501,0.080
10502,0.084
10503,0.086
10504,0.088
10505,0.092
10506,0.090
10507,0.092
10508,0.094
10509,0.096
10510,0.096
10511,0.096
10512,0.098
10513,0.096
10514,0.096
10515,0.100
10516,0.100
10517,0.100
10518,0.102
10519,0.104
10520,0.108
10521,0.104
10522,0.108
10523,0.108
10524,0.106
10525,0.108
10526,0.110
10527,0.110
10528,0.108
10529,0.112
10530,0.108
10531,0.108
10532,0.114
10533,0.106
10534,0.108
10535,0.112
10536,0.110
10537,0.112
10538,0.110
10539,0.106
10540,0.112
10541,0.114
10542,0.112
10543,0.112
10544,0.116
10545,0.114
10546,0.112
10547,0.114
10548,0.120
10549,0.114
10550,0.114
10551,0.116
10552,0.112
10553,0.114
10554,0.112
10555,0.120
10556,0.124
10557,0.128
10558,0.130
10559,0.128
10560,0.128
10561,0.134
10562,0.130
10563,0.130
10564,0.140
10565,0.144
10566,0.146
10567,0.156
10568,0.152
10569,0.156
10570,0.156
10571,0.152
10572,0.148
10573,0.148
10574,0.148
10575,0.146
10576,0.142
10577,0.142
10578,0.136
10579,0.130
10580,0.128
10581,0.128
10582,0.120
10583,0.114
10584,0.114
10585,0.110
10586,0.114
10587,0.112
10588,0.112
10589,0.110
10590,0.112
10591,0.112
10592,0.120
10593,0.108
10594,0.112
10595,0.112
10596,0.108
10597,0.112
10598,0.112
10599,0.114
10600,0.120
10601,0.116
10602,0.112
10603,0.102
10604,0.082
10605,0.064
10606,0.062
10607,0.072
10608,0.108
10609,0.192
10610,0.316
10611,0.460
10612,0.592
10613,0.704
10614,0.764
10615,0.704
10616,0.508
10617,0.326
10618,0.166
10619,0.088
10620,0.054
10621,0.048
10622,0.050
10623,0.056
10624,0.060
10625,0.070
10626,0.078
10627,0.082
10628,0.082
10629,0.082
10630,0.080
10631,0.082
10632,0.088
10633,0.092
10634,0.088
10635,0.092
10636,0.096
10637,0.096
10638,0.096
10639,0.096
10640,0.098
10641,0.104
10642,0.104
10643,0.104
10644,0.108
10645,0.112
10646,0.110
10647,0.112
10648,0.112
10649,0.120
10650,0.118
10651,0.118
10652,0.120
10653,0.124
10654,0.128
10655,0.126
10656,0.126
10657,0.128
10658,0.132
10659,0.130
10660,0.132
10661,0.142
10662,0.144
10663,0.144
10664,0.150
10665,0.152
10666,0.152
10667,0.156
10668,0.156
10669,0.164
10670,0.168
10671,0.174
10672,0.174
10673,0.178
10674,0.178
10675,0.184
10676,0.184
10677,0.188
10678,0.190
10679,0.188
10680,0.190
10681,0.188
10682,0.184
10683,0.176
10684,0.168
10685,0.156
10686,0.152
10687,0.136
10688,0.128
10689,0.120
10690,0.118
10691,0.110
10692,0.102
10693,0.096
10694,0.092
10695,0.086
10696,0.080
10697,0.080
10698,0.080
10699,0.080
10700,0.080
10701,0.078
10702,0.074
10703,0.074
10704,0.076
10705,0.076
10706,0.076
10707,0.080
10708,0.080
10709,0.076
10710,0.084
10711,0.082
10712,0.088
10713,0.088
10714,0.088
10715,0.088
10716,0.094
10717,0.088
10718,0.088
10719,0.092
10720,0.098
10721,0.092
10722,0.094
10723,0.098
10724,0.098
10725,0.098
10726,0.102
10727,0.104
10728,0.104
10729,0.112
10730,0.104
10731,0.106
10732,0.112
10733,0.112
10734,0.110
10735,0.112
10736,0.112
10737,0.114
10738,0.112
10739,0.112
10740,0.114
10741,0.114
10742,0.110
10743,0.110
10744,0.112
10745,0.112
10746,0.112
10747,0.112
10748,0.112
10749,0.120
10750,0.116
10751,0.114
10752,0.118
10753,0.118
10754,0.120
10755,0.120
10756,0.120
10757,0.128
10758,0.126
10759,0.128
10760,0.128
10761,0.134
10762,0.142
10763,0.138
10764,0.142
10765,0.154
10766,0.154
10767,0.148
10768,0.150
10769,0.152
10770,0.152
10771,0.158
10772,0.144
10773,0.148
10774,0.142
10775,0.138
10776,0.134
10777,0.132
10778,0.128
10779,0.130
10780,0.120
10781,0.116
10782,0.112
10783,0.112
10784,0.106
10785,0.110
10786,0.110
10787,0.112
10788,0.104
10789,0.104
10790,0.104
10791,0.102
10792,0.104
10793,0.104
10794,0.110
10795,0.110
10796,0.112
10797,0.112
10798,0.112
10799,0.112
10800,0.104
10801,0.082
10802,0.068
10803,0.056
10804,0.066
10805,0.090
10806,0.154
10807,0.270
10808,0.412
10809,0.540
10810,0.664
10811,0.752
10812,0.742
10813,0.566
10814,0.372
10815,0.202
10816,0.102
10817,0.058
10818,0.048
10819,0.048
10820,0.048
10821,0.048
10822,0.060
10823,0.078
10824,0.088
10825,0.088
10826,0.088
10827,0.086
10828,0.082
10829,0.084
10830,0.088
10831,0.088
10832,0.090
10833,0.092
10834,0.088
10835,0.094
10836,0.096
10837,0.098
10838,0.104
10839,0.102
10840,0.110
10841,0.106
10842,0.110
10843,0.110
10844,0.110
10845,0.114
10846,0.116
10847,0.118
10848,0.118
10849,0.120
10850,0.122
10851,0.124
10852,0.120
10853,0.124
10854,0.128
10855,0.128
10856,0.134
10857,0.138
10858,0.140
10859,0.142
10860,0.140
10861,0.148
10862,0.150
10863,0.154
10864,0.156
10865,0.160
10866,0.164
10867,0.168
10868,0.168
10869,0.172
10870,0.176
10871,0.176
10872,0.180
10873,0.182
10874,0.188
10875,0.188
10876,0.184
10877,0.188
10878,0.186
10879,0.182
10880,0.172
10881,0.168
10882,0.160
10883,0.152
10884,0.140
10885,0.130
10886,0.120
10887,0.112
10888,0.104
10889,0.090
10890,0.088
10891,0.082
10892,0.078
10893,0.074
10894,0.072
10895,0.072
10896,0.072
10897,0.070
10898,0.072
10899,0.074
10900,0.072
10901,0.076
10902,0.076
10903,0.072
10904,0.078
10905,0.076
10906,0.072
10907,0.076
10908,0.080
10909,0.080
10910,0.080
10911,0.082
10912,0.084
10913,0.084
10914,0.086
10915,0.086
10916,0.086
10917,0.086
10918,0.092
10919,0.090
10920,0.098
10921,0.096
10922,0.096
10923,0.096
10924,0.098
10925,0.100
10926,0.102
10927,0.102
10928,0.108
10929,0.110
10930,0.104
10931,0.106
10932,0.108
10933,0.112
10934,0.110
10935,0.110
10936,0.110
10937,0.114
10938,0.112
10939,0.112
10940,0.114
10941,0.112
10942,0.112
10943,0.112
10944,0.112
10945,0.112
10946,0.118
10947,0.118
10948,0.114
10949,0.122
10950,0.124
10951,0.124
10952,0.128
10953,0.130
10954,0.134
10955,0.134
10956,0.140
10957,0.146
10958,0.148
10959,0.144
10960,0.140
10961,0.144
10962,0.142
10963,0.146
10964,0.140
10965,0.140
10966,0.136
10967,0.136
10968,0.122
10969,0.120
10970,0.120
10971,0.116
10972,0.112
10973,0.110
10974,0.108
10975,0.104
10976,0.104
10977,0.102
10978,0.104
10979,0.104
10980,0.102
10981,0.104
10982,0.104
10983,0.102
10984,0.102
10985,0.100
10986,0.106
10987,0.106
10988,0.104
10989,0.110
10990,0.104
10991,0.112
10992,0.100
10993,0.084
10994,0.066
10995,0.056
10996,0.058
10997,0.090
10998,0.156
10999,0.262
11000,0.396
11001,0.532
11002,0.662
11003,0.752
11004,0.776
11005,0.624
11006,0.416
11007,0.242
11008,0.116
11009,0.078
11010,0.064
11011,0.056
11012,0.056
11013,0.056
11014,0.072
11015,0.080
11016,0.078
11017,0.076
11018,0.076
11019,0.072
11020,0.072
11021,0.074
11022,0.074
11023,0.076
11024,0.080
11025,0.082
11026,0.084
11027,0.080
11028,0.090
11029,0.092
11030,0.088
11031,0.092
11032,0.096
11033,0.096
11034,0.100
11035,0.102
11036,0.102
11037,0.104
11038,0.108
11039,0.110
11040,0.112
11041,0.114
11042,0.114
11043,0.114
11044,0.120
11045,0.126
11046,0.122
11047,0.126
11048,0.130
11049,0.132
11050,0.134
11051,0.146
11052,0.138
11053,0.144
11054,0.148
11055,0.150
11056,0.152
11057,0.160
11058,0.164
11059,0.168
11060,0.172
11061,0.180
11062,0.176
11063,0.184
11064,0.184
11065,0.188
11066,0.190
11067,0.194
11068,0.190
11069,0.190
11070,0.196
11071,0.188
11072,0.182
11073,0.178
11074,0.168
11075,0.158
11076,0.144
11077,0.134
11078,0.126
11079,0.116
11080,0.104
11081,0.090
11082,0.088
11083,0.084
11084,0.078
11085,0.072
11086,0.074
11087,0.072
11088,0.064
11089,0.066
11090,0.070
11091,0.070
11092,0.070
11093,0.070
11094,0.074
11095,0.074
11096,0.076
11097,0.078
11098,0.074
11099,0.080
11100,0.080
11101,0.080
11102,0.082
11103,0.082
11104,0.082
11105,0.082
11106,0.086
11107,0.086
11108,0.088
11109,0.086
11110,0.086
11111,0.090
11112,0.094
11113,0.088
11114,0.088
11115,0.092
11116,0.096
11117,0.096
11118,0.096
11119,0.098
11120,0.096
11121,0.098
11122,0.100
11123,0.098
11124,0.104
11125,0.106
11126,0.104
11127,0.104
11128,0.104
11129,0.104
11130,0.104
11131,0.104
11132,0.108
11133,0.106
11134,0.108
11135,0.106
11136,0.106
11137,0.106
11138,0.112
11139,0.106
11140,0.110
11141,0.112
11142,0.112
11143,0.114
11144,0.118
11145,0.120
11146,0.120
11147,0.122
11148,0.124
11149,0.124
11150,0.128
11151,0.128
11152,0.130
11153,0.138
11154,0.144
11155,0.152
11156,0.144
11157,0.150
11158,0.144
11159,0.144
11160,0.142
11161,0.144
11162,0.140
11163,0.138
11164,0.132
11165,0.128
11166,0.126
11167,0.120
11168,0.116
11169,0.112
11170,0.118
11171,0.110
11172,0.104
11173,0.104
11174,0.102
11175,0.104
11176,0.098
11177,0.106
11178,0.100
11179,0.100
11180,0.102
11181,0.104
11182,0.104
11183,0.102
11184,0.104
11185,0.102
11186,0.104
11187,0.106
11188,0.104
11189,0.104
11190,0.104
11191,0.092
11192,0.076
11193,0.062
11194,0.056
11195,0.080
11196,0.132
11197,0.218
11198,0.344
11199,0.480
11200,0.612
11201,0.708
11202,0.774
11203,0.680
11204,0.486
11205,0.298
11206,0.148
11207,0.090
11208,0.072
11209,0.064
11210,0.060
11211,0.056
11212,0.074
11213,0.082
11214,0.080
11215,0.074
11216,0.080
11217,0.072
11218,0.072
11219,0.074
11220,0.078
11221,0.080
11222,0.076
11223,0.080
11224,0.086
11225,0.086
11226,0.088
11227,0.086
11228,0.094
11229,0.096
11230,0.090
11231,0.092
11232,0.096
11233,0.094
11234,0.102
11235,0.104
11236,0.104
11237,0.106
11238,0.110
11239,0.112
11240,0.112
11241,0.112
11242,0.120
11243,0.118
11244,0.118
11245,0.124
11246,0.126
11247,0.122
11248,0.130
11249,0.132
11250,0.132
11251,0.136
11252,0.142
11253,0.148
11254,0.154
11255,0.152
11256,0.156
11257,0.160
11258,0.168
11259,0.174
11260,0.174
11261,0.180
11262,0.180
11263,0.184
11264,0.190
11265,0.194
11266,0.194
11267,0.192
11268,0.192
11269,0.192
11270,0.188
11271,0.184
11272,0.172
11273,0.162
11274,0.152
11275,0.140
11276,0.130
11277,0.116
11278,0.110
11279,0.100
11280,0.092
11281,0.084
11282,0.080
11283,0.080
11284,0.072
11285,0.070
11286,0.064
11287,0.072
11288,0.070
11289,0.068
11290,0.066
11291,0.072
11292,0.072
11293,0.074
11294,0.076
11295,0.076
11296,0.076
11297,0.078
11298,0.080
11299,0.082
11300,0.082
11301,0.080
11302,0.082
11303,0.088
11304,0.088
11305,0.084
11306,0.088
11307,0.086
11308,0.090
11309,0.090
11310,0.088
11311,0.090
11312,0.094
11313,0.092
11314,0.094
11315,0.094
11316,0.096
11317,0.094
11318,0.092
11319,0.096
11320,0.094
11321,0.096
11322,0.094
11323,0.100
11324,0.102
11325,0.104
11326,0.102
11327,0.100
11328,0.102
11329,0.102
11330,0.102
11331,0.104
11332,0.104
11333,0.106
11334,0.102
11335,0.104
11336,0.106
11337,0.104
11338,0.108
11339,0.110
11340,0.112
11341,0.110
11342,0.114
11343,0.112
11344,0.108
11345,0.114
11346,0.112
11347,0.110
11348,0.108
11349,0.112
11350,0.108
11351,0.112
11352,0.112
11353,0.112
11354,0.114
11355,0.112
11356,0.112
11357,0.110
11358,0.112
11359,0.112
11360,0.112
11361,0.120
11362,0.116
11363,0.122
11364,0.122
11365,0.128
11366,0.126
11367,0.130
11368,0.130
11369,0.132
11370,0.132
11371,0.138
11372,0.136
11373,0.144
11374,0.154
11375,0.158
11376,0.152
11377,0.146
11378,0.152
11379,0.152
11380,0.146
11381,0.150
11382,0.144
11383,0.142
11384,0.138
11385,0.130
11386,0.126
11387,0.122
11388,0.120
11389,0.118
11390,0.112
11391,0.114
11392,0.108
11393,0.104
11394,0.108
11395,0.112
11396,0.110
11397,0.110
11398,0.108
11399,0.106
11400,0.108
11401,0.110
11402,0.104
11403,0.108
11404,0.112
11405,0.112
11406,0.104
11407,0.112
11408,0.112
11409,0.112
11410,0.106
11411,0.088
11412,0.080
11413,0.072
11414,0.068
11415,0.088
11416,0.136
11417,0.240
11418,0.368
11419,0.508
11420,0.634
11421,0.722
11422,0.768
11423,0.640
11424,0.444
11425,0.264
11426,0.130
11427,0.076
11428,0.056
11429,0.056
11430,0.052
11431,0.050
11432,0.060
11433,0.080
11434,0.084
11435,0.078
11436,0.080
11437,0.082
11438,0.080
11439,0.080
11440,0.082
11441,0.082
11442,0.086
11443,0.086
11444,0.092
11445,0.092
11446,0.094
11447,0.096
11448,0.096
11449,0.096
11450,0.100
11451,0.100
11452,0.102
11453,0.106
11454,0.108
11455,0.110
11456,0.114
11457,0.112
11458,0.116
11459,0.116
11460,0.118
11461,0.118
11462,0.124
11463,0.128
11464,0.126
11465,0.128
11466,0.136
11467,0.136
11468,0.136
11469,0.140
11470,0.140
11471,0.146
11472,0.148
11473,0.152
11474,0.156
11475,0.160
11476,0.162
11477,0.164
11478,0.168
11479,0.176
11480,0.174
11481,0.176
11482,0.186
11483,0.188
11484,0.190
11485,0.194
11486,0.194
11487,0.194
11488,0.196
11489,0.196
11490,0.192
11491,0.186
11492,0.176
11493,0.166
11494,0.152
11495,0.144
11496,0.134
11497,0.122
11498,0.112
11499,0.112
11500,0.100
11501,0.096
11502,0.086
11503,0.080
11504,0.078
11505,0.076
11506,0.074
11507,0.074
11508,0.078
11509,0.078
11510,0.078
11511,0.078
11512,0.078
11513,0.076
11514,0.080
11515,0.082
11516,0.086
11517,0.086
11518,0.080
11519,0.086
11520,0.088
11521,0.088
11522,0.084
11523,0.086
11524,0.088
11525,0.088
11526,0.088
11527,0.088
11528,0.092
11529,0.096
11530,0.098
11531,0.096
11532,0.096
11533,0.102
11534,0.100
11535,0.098
11536,0.104
11537,0.102
11538,0.104
11539,0.104
11540,0.104
11541,0.106
11542,0.108
11543,0.108
11544,0.108
11545,0.112
11546,0.112
11547,0.112
11548,0.108
11549,0.110
11550,0.112
11551,0.108
11552,0.112
11553,0.114
11554,0.116
11555,0.114
11556,0.110
11557,0.114
11558,0.112
11559,0.112
11560,0.112
11561,0.112
11562,0.112
11563,0.112
11564,0.114
11565,0.110
11566,0.112
11567,0.118
11568,0.120
11569,0.114
11570,0.120
11571,0.112
11572,0.112
11573,0.112
11574,0.116
11575,0.120
11576,0.128
11577,0.128
11578,0.128
11579,0.128
11580,0.128
11581,0.126
11582,0.128
11583,0.136
11584,0.140
11585,0.146
11586,0.152
11587,0.156
11588,0.152
11589,0.148
11590,0.150
11591,0.150
11592,0.150
11593,0.144
11594,0.144
11595,0.142
11596,0.138
11597,0.128
11598,0.128
11599,0.124
11600,0.122
11601,0.122
11602,0.114
11603,0.116
11604,0.112
11605,0.110
11606,0.108
11607,0.110
11608,0.112
11609,0.108
11610,0.106
11611,0.108
11612,0.110
11613,0.110
11614,0.108
11615,0.106
11616,0.110
11617,0.112
11618,0.112
11619,0.112
11620,0.114
11621,0.116
11622,0.096
11623,0.080
11624,0.064
11625,0.058
11626,0.068
11627,0.104
11628,0.182
11629,0.306
11630,0.452
11631,0.580
11632,0.692
11633,0.768
11634,0.712
11635,0.518
11636,0.334
11637,0.176
11638,0.088
11639,0.054
11640,0.048
11641,0.048
11642,0.048
11643,0.052
11644,0.068
11645,0.080
11646,0.086
11647,0.088
11648,0.084
11649,0.082
11650,0.088
11651,0.082
11652,0.080
11653,0.086
11654,0.088
11655,0.088
11656,0.088
11657,0.094
11658,0.098
11659,0.098
11660,0.104
11661,0.102
11662,0.106
11663,0.110
11664,0.108
11665,0.104
11666,0.112
11667,0.114
11668,0.114
11669,0.112
11670,0.118
11671,0.112
11672,0.120
11673,0.120
11674,0.124
11675,0.124
11676,0.130
11677,0.134
11678,0.134
11679,0.136
11680,0.138
11681,0.144
11682,0.142
11683,0.148
11684,0.150
11685,0.152
11686,0.156
11687,0.162
11688,0.168
11689,0.168
11690,0.172
11691,0.178
11692,0.180
11693,0.184
11694,0.180
11695,0.190
11696,0.184
11697,0.184
11698,0.188
11699,0.188
11700,0.184
11701,0.184
11702,0.178
11703,0.172
11704,0.158
11705,0.154
11706,0.138
11707,0.128
11708,0.118
11709,0.112
11710,0.100
11711,0.094
11712,0.090
11713,0.086
11714,0.080
11715,0.078
11716,0.076
11717,0.078
11718,0.072
11719,0.074
11720,0.072
11721,0.074
11722,0.076
11723,0.076
11724,0.076
11725,0.080
11726,0.078
11727,0.076
11728,0.076
11729,0.080
11730,0.080
11731,0.082
11732,0.088
11733,0.088
11734,0.088
11735,0.084
11736,0.086
11737,0.088
11738,0.090
11739,0.094
11740,0.090
11741,0.096
11742,0.094
11743,0.090
11744,0.096
11745,0.096
11746,0.098
11747,0.102
11748,0.100
11749,0.102
11750,0.106
11751,0.102
11752,0.102
11753,0.110
11754,0.106
11755,0.112
11756,0.112
11757,0.108
11758,0.112
11759,0.112
11760,0.114
11761,0.112
11762,0.112
11763,0.112
11764,0.110
11765,0.112
11766,0.112
11767,0.112
11768,0.110
11769,0.108
11770,0.112
11771,0.112
11772,0.112
11773,0.112
11774,0.120
11775,0.120
11776,0.124
11777,0.126
11778,0.126
11779,0.130
11780,0.128
11781,0.126
11782,0.134
11783,0.138
11784,0.144
11785,0.150
11786,0.152
11787,0.148
11788,0.144
11789,0.142
11790,0.144
11791,0.146
11792,0.146
11793,0.140
11794,0.138
11795,0.136
11796,0.136
11797,0.124
11798,0.120
11799,0.122
11800,0.120
11801,0.114
11802,0.110
11803,0.104
11804,0.106
11805,0.108
11806,0.104
11807,0.104
11808,0.108
11809,0.104
11810,0.104
11811,0.098
11812,0.106
11813,0.110
11814,0.106
11815,0.106
11816,0.104
11817,0.108
11818,0.106
11819,0.106
11820,0.096
11821,0.088
11822,0.072
11823,0.060
11824,0.060
11825,0.080
11826,0.128
11827,0.220
11828,0.352
11829,0.490
11830,0.616
11831,0.712
11832,0.766
11833,0.656
11834,0.452
11835,0.270
11836,0.126
11837,0.068
11838,0.050
11839,0.048
11840,0.044
11841,0.048
11842,0.056
11843,0.072
11844,0.078
11845,0.078
11846,0.080
11847,0.078
11848,0.080
11849,0.080
11850,0.080
11851,0.084
11852,0.086
11853,0.082
11854,0.090
11855,0.088
11856,0.092
11857,0.088
11858,0.096
11859,0.096
11860,0.098
11861,0.098
11862,0.102
11863,0.106
11864,0.106
11865,0.106
11866,0.114
11867,0.110
11868,0.112
11869,0.112
11870,0.118
11871,0.120
11872,0.120
11873,0.120
11874,0.122
11875,0.126
11876,0.130
11877,0.130
11878,0.130
11879,0.136
11880,0.142
11881,0.142
11882,0.146
11883,0.146
11884,0.158
11885,0.154
11886,0.160
11887,0.166
11888,0.168
11889,0.168
11890,0.176
11891,0.180
11892,0.190
11893,0.190
11894,0.190
11895,0.188
11896,0.192
11897,0.192
11898,0.190
11899,0.188
11900,0.184
11901,0.178
11902,0.168
11903,0.154
11904,0.146
11905,0.132
11906,0.120
11907,0.108
11908,0.102
11909,0.098
11910,0.088
11911,0.080
11912,0.080
11913,0.078
11914,0.070
11915,0.066
11916,0.070
11917,0.072
11918,0.068
11919,0.072
11920,0.068
11921,0.072
11922,0.072
11923,0.074
11924,0.068
11925,0.076
11926,0.076
11927,0.076
11928,0.076
11929,0.080
11930,0.074
11931,0.078
11932,0.074
11933,0.080
11934,0.078
11935,0.082
11936,0.084
11937,0.084
11938,0.082
11939,0.084
11940,0.084
11941,0.092
11942,0.092
11943,0.094
11944,0.088
11945,0.096
11946,0.100
11947,0.100
11948,0.098
11949,0.102
11950,0.104
11951,0.106
11952,0.104
11953,0.104
11954,0.106
11955,0.112
11956,0.106
11957,0.112
11958,0.110
11959,0.112
11960,0.108
11961,0.110
11962,0.112
11963,0.110
11964,0.112
11965,0.110
11966,0.116
11967,0.114
11968,0.114
11969,0.112
11970,0.110
11971,0.114
11972,0.108
11973,0.106
11974,0.110
11975,0.112
11976,0.112
11977,0.110
11978,0.112
11979,0.112
11980,0.118
11981,0.116
11982,0.120
11983,0.126
11984,0.130
11985,0.128
11986,0.126
11987,0.128
11988,0.134
11989,0.134
11990,0.136
11991,0.146
11992,0.152
11993,0.150
11994,0.148
11995,0.144
11996,0.144
11997,0.146
11998,0.142
11999,0.138
12000,0.146
12001,0.138
12002,0.132
12003,0.128
12004,0.128
12005,0.124
12006,0.120
12007,0.116
12008,0.114
12009,0.112
12010,0.106
12011,0.104
12012,0.104
12013,0.108
12014,0.106
12015,0.102
12016,0.106
12017,0.106
12018,0.102
12019,0.102
12020,0.104
12021,0.104
12022,0.110
12023,0.110
12024,0.108
12025,0.114
12026,0.116
12027,0.110
12028,0.096
12029,0.082
12030,0.070
12031,0.060
12032,0.076
12033,0.130
12034,0.214
12035,0.344
12036,0.472
12037,0.608
12038,0.716
12039,0.786
12040,0.718
12041,0.522
12042,0.328
12043,0.166
12044,0.088
12045,0.072
12046,0.066
12047,0.058
12048,0.058
12049,0.072
12050,0.080
12051,0.080
12052,0.078
12053,0.080
12054,0.078
12055,0.080
12056,0.078
12057,0.076
12058,0.082
12059,0.082
12060,0.084
12061,0.080
12062,0.086
12063,0.088
12064,0.088
12065,0.088
12066,0.090
12067,0.094
12068,0.096
12069,0.096
12070,0.096
12071,0.104
12072,0.104
12073,0.104
12074,0.108
12075,0.112
12076,0.114
12077,0.114
12078,0.118
12079,0.120
12080,0.122
12081,0.120
12082,0.120
12083,0.124
12084,0.132
12085,0.134
12086,0.132
12087,0.134
12088,0.142
12089,0.140
12090,0.144
12091,0.148
12092,0.152
12093,0.156
12094,0.160
12095,0.168
12096,0.168
12097,0.174
12098,0.180
12099,0.184
12100,0.190
12101,0.190
12102,0.192
12103,0.192
12104,0.198
12105,0.194
12106,0.192
12107,0.188
12108,0.182
12109,0.176
12110,0.166
12111,0.154
12112,0.140
12113,0.132
12114,0.120
12115,0.106
12116,0.102
12117,0.094
12118,0.088
12119,0.080
12120,0.076
12121,0.078
12122,0.070
12123,0.070
12124,0.068
12125,0.072
12126,0.074
12127,0.072
12128,0.072
12129,0.072
12130,0.074
12131,0.078
12132,0.072
12133,0.078
12134,0.076
12135,0.078
12136,0.082
12137,0.084
12138,0.080
12139,0.086
12140,0.084
12141,0.086
12142,0.086
12143,0.088
12144,0.088
12145,0.088
12146,0.092
12147,0.094
12148,0.088
12149,0.092
12150,0.094
12151,0.098
12152,0.094
12153,0.094
12154,0.096
12155,0.096
12156,0.096
12157,0.096
12158,0.098
12159,0.106
12160,0.102
12161,0.102
12162,0.106
12163,0.104
12164,0.104
12165,0.106
12166,0.108
12167,0.108
12168,0.104
12169,0.108
12170,0.112
12171,0.110
12172,0.112
12173,0.112
12174,0.108
12175,0.112
12176,0.112
12177,0.112
12178,0.108
12179,0.114
12180,0.112
12181,0.112
12182,0.112
12183,0.112
12184,0.114
12185,0.112
12186,0.112
12187,0.112
12188,0.114
12189,0.112
12190,0.114
12191,0.114
12192,0.118
12193,0.116
12194,0.114
12195,0.118
12196,0.120
12197,0.118
12198,0.118
12199,0.114
12200,0.116
12201,0.118
12202,0.120
12203,0.122
12204,0.130
12205,0.128
12206,0.130
12207,0.130
12208,0.132
12209,0.132
12210,0.136
12211,0.140
12212,0.144
12213,0.154
12214,0.152
12215,0.152
12216,0.150
12217,0.150
12218,0.148
12219,0.148
12220,0.146
12221,0.152
12222,0.144
12223,0.140
12224,0.136
12225,0.130
12226,0.130
12227,0.122
12228,0.120
12229,0.120
12230,0.114
12231,0.108
12232,0.108
12233,0.108
12234,0.112
12235,0.110
12236,0.104
12237,0.108
12238,0.112
12239,0.112
12240,0.108
12241,0.108
12242,0.112
12243,0.108
12244,0.108
12245,0.108
12246,0.110
12247,0.114
12248,0.112
12249,0.110
12250,0.096
12251,0.082
12252,0.066
12253,0.060
12254,0.088
12255,0.142
12256,0.242
12257,0.368
12258,0.498
12259,0.634
12260,0.728
12261,0.784
12262,0.680
12263,0.480
12264,0.292
12265,0.144
12266,0.090
12267,0.080
12268,0.066
12269,0.060
12270,0.064
12271,0.076
12272,0.080
12273,0.080
12274,0.078
12275,0.078
12276,0.076
12277,0.076
12278,0.076
12279,0.076
12280,0.080
12281,0.078
12282,0.080
12283,0.080
12284,0.084
12285,0.088
12286,0.088
12287,0.090
12288,0.094
12289,0.096
12290,0.096
12291,0.096
12292,0.102
12293,0.104
12294,0.102
12295,0.104
12296,0.108
12297,0.110
12298,0.112
12299,0.114
12300,0.118
12301,0.120
12302,0.120
12303,0.116
12304,0.120
12305,0.126
12306,0.126
12307,0.128
12308,0.130
12309,0.136
12310,0.144
12311,0.140
12312,0.146
12313,0.150
12314,0.152
12315,0.160
12316,0.162
12317,0.170
12318,0.176
12319,0.176
12320,0.176
12321,0.182
12322,0.186
12323,0.188
12324,0.192
12325,0.196
12326,0.196
12327,0.194
12328,0.196
12329,0.194
12330,0.190
12331,0.178
12332,0.166
12333,0.158
12334,0.146
12335,0.136
12336,0.120
12337,0.116
12338,0.104
12339,0.096
12340,0.088
12341,0.080
12342,0.080
12343,0.076
12344,0.072
12345,0.072
12346,0.072
12347,0.072
12348,0.072
12349,0.070
12350,0.072
12351,0.076
12352,0.070
12353,0.074
12354,0.076
12355,0.082
12356,0.078
12357,0.080
12358,0.080
12359,0.082
12360,0.084
12361,0.086
12362,0.088
12363,0.090
12364,0.094
12365,0.092
12366,0.092
12367,0.094
12368,0.094
12369,0.094
12370,0.094
12371,0.094
12372,0.092
12373,0.094
12374,0.098
12375,0.096
12376,0.100
12377,0.098
12378,0.098
12379,0.098
12380,0.102
12381,0.098
12382,0.100
12383,0.104
12384,0.104
12385,0.104
12386,0.102
12387,0.102
12388,0.102
12389,0.104
12390,0.102
12391,0.104
12392,0.110
12393,0.108
12394,0.108
12395,0.110
12396,0.112
12397,0.108
12398,0.108
12399,0.112
12400,0.108
12401,0.108
12402,0.112
12403,0.112
12404,0.112
12405,0.112
12406,0.112
12407,0.108
12408,0.114
12409,0.114
12410,0.116
12411,0.112
12412,0.118
12413,0.120
12414,0.116
12415,0.120
12416,0.118
12417,0.116
12418,0.116
12419,0.112
12420,0.112
12421,0.114
12422,0.118
12423,0.112
12424,0.112
12425,0.120
12426,0.120
12427,0.118
12428,0.120
12429,0.120
12430,0.122
12431,0.124
12432,0.120
12433,0.122
12434,0.120
12435,0.122
12436,0.120
12437,0.118
12438,0.120
12439,0.120
12440,0.116
12441,0.122
12442,0.124
12443,0.126
12444,0.124
12445,0.128
12446,0.130
12447,0.134
12448,0.136
12449,0.134
12450,0.136
12451,0.138
12452,0.138
12453,0.138
12454,0.144
12455,0.148
12456,0.154
12457,0.156
12458,0.156
12459,0.154
12460,0.152
12461,0.150
12462,0.152
12463,0.156
12464,0.152
12465,0.150
12466,0.144
12467,0.142
12468,0.132
12469,0.132
12470,0.124
12471,0.128
12472,0.120
12473,0.114
12474,0.114
12475,0.112
12476,0.112
12477,0.114
12478,0.108
12479,0.110
12480,0.114
12481,0.112
12482,0.112
12483,0.114
12484,0.114
12485,0.112
12486,0.112
12487,0.112
12488,0.112
12489,0.112
12490,0.114
12491,0.114
12492,0.106
12493,0.094
12494,0.078
12495,0.066
12496,0.066
12497,0.102
12498,0.158
12499,0.264
12500,0.400
12501,0.532
12502,0.656
12503,0.746
12504,0.782
12505,0.646
12506,0.442
12507,0.258
12508,0.122
12509,0.078
12510,0.064
12511,0.058
12512,0.056
12513,0.056
12514,0.070
12515,0.078
12516,0.080
12517,0.076
12518,0.078
12519,0.078
12520,0.078
12521,0.080
12522,0.080
12523,0.080
12524,0.080
12525,0.084
12526,0.088
12527,0.088
12528,0.088
12529,0.096
12530,0.096
12531,0.096
12532,0.098
12533,0.100
12534,0.100
12535,0.104
12536,0.102
12537,0.104
12538,0.112
12539,0.112
12540,0.112
12541,0.112
12542,0.120
12543,0.120
12544,0.124
12545,0.120
12546,0.128
12547,0.128
12548,0.128
12549,0.130
12550,0.128
12551,0.136
12552,0.136
12553,0.144
12554,0.152
12555,0.152
12556,0.154
12557,0.154
12558,0.160
12559,0.162
12560,0.164
12561,0.170
12562,0.172
12563,0.178
12564,0.180
12565,0.182
12566,0.184
12567,0.194
12568,0.192
12569,0.192
12570,0.192
12571,0.192
12572,0.192
12573,0.184
12574,0.176
12575,0.172
12576,0.160
12577,0.148
12578,0.136
12579,0.128
12580,0.118
12581,0.106
12582,0.098
12583,0.094
12584,0.092
12585,0.084
12586,0.080
12587,0.080
12588,0.076
12589,0.078
12590,0.074
12591,0.076
12592,0.074
12593,0.074
12594,0.076
12595,0.074
12596,0.076
12597,0.076
12598,0.080
12599,0.080
12600,0.080
12601,0.084
12602,0.088
12603,0.080
12604,0.092
12605,0.084
12606,0.088
12607,0.086
12608,0.086
12609,0.088
12610,0.088
12611,0.090
12612,0.090
12613,0.094
12614,0.098
12615,0.096
12616,0.096
12617,0.100
12618,0.098
12619,0.098
12620,0.102
12621,0.104
12622,0.106
12623,0.104
12624,0.100
12625,0.104
12626,0.106
12627,0.104
12628,0.108
12629,0.108
12630,0.106
12631,0.106
12632,0.110
12633,0.108
12634,0.112
12635,0.112
12636,0.112
12637,0.112
12638,0.114
12639,0.114
12640,0.110
12641,0.112
12642,0.110
12643,0.112
12644,0.112
12645,0.114
12646,0.112
12647,0.118
12648,0.112
12649,0.112
12650,0.112
12651,0.112
12652,0.114
12653,0.112
12654,0.112
12655,0.114
12656,0.116
12657,0.114
12658,0.116
12659,0.120
12660,0.120
12661,0.120
12662,0.120
12663,0.120
12664,0.120
12665,0.116
12666,0.116
12667,0.116
12668,0.120
12669,0.120
12670,0.124
12671,0.130
12672,0.130
12673,0.132
12674,0.128
12675,0.134
12676,0.136
12677,0.144
12678,0.146
12679,0.154
12680,0.156
12681,0.160
12682,0.152
12683,0.150
12684,0.152
12685,0.152
12686,0.148
12687,0.152
12688,0.150
12689,0.146
12690,0.142
12691,0.140
12692,0.136
12693,0.130
12694,0.128
12695,0.126
12696,0.120
12697,0.116
12698,0.114
12699,0.112
12700,0.112
12701,0.112
12702,0.110
12703,0.110
12704,0.108
12705,0.112
12706,0.108
12707,0.112
12708,0.112
12709,0.114
12710,0.116
12711,0.112
12712,0.112
12713,0.112
12714,0.118
12715,0.110
12716,0.096
12717,0.082
12718,0.072
12719,0.062
12720,0.072
12721,0.106
12722,0.184
12723,0.306
12724,0.444
12725,0.580
12726,0.688
12727,0.768
12728,0.726
12729,0.542
12730,0.352
12731,0.184
12732,0.096
12733,0.060
12734,0.054
12735,0.052
12736,0.050
12737,0.054
12738,0.068
12739,0.074
12740,0.082
12741,0.082
12742,0.084
12743,0.088
12744,0.086
12745,0.084
12746,0.086
12747,0.090
12748,0.088
12749,0.090
12750,0.094
12751,0.096
12752,0.096
12753,0.098
12754,0.098
12755,0.102
12756,0.104
12757,0.104
12758,0.104
12759,0.108
12760,0.112
12761,0.108
12762,0.110
12763,0.112
12764,0.112
12765,0.116
12766,0.120
12767,0.120
12768,0.128
12769,0.126
12770,0.128
12771,0.134
12772,0.136
12773,0.134
12774,0.134
12775,0.142
12776,0.152
12777,0.142
12778,0.144
12779,0.146
12780,0.156
12781,0.160
12782,0.164
12783,0.164
12784,0.168
12785,0.174
12786,0.174
12787,0.182
12788,0.184
12789,0.184
12790,0.188
12791,0.192
12792,0.192
12793,0.192
12794,0.186
12795,0.184
12796,0.184
12797,0.176
12798,0.168
12799,0.158
12800,0.148
12801,0.140
12802,0.128
12803,0.118
12804,0.108
12805,0.100
12806,0.094
12807,0.086
12808,0.082
12809,0.078
12810,0.076
12811,0.076
12812,0.072
12813,0.072
12814,0.074
12815,0.072
12816,0.074
12817,0.076
12818,0.076
12819,0.072
12820,0.078
12821,0.078
12822,0.080
12823,0.076
12824,0.078
12825,0.080
12826,0.080
12827,0.086
12828,0.082
12829,0.082
12830,0.088
12831,0.088
12832,0.086
12833,0.088
12834,0.090
12835,0.088
12836,0.090
12837,0.092
12838,0.094
12839,0.094
12840,0.090
12841,0.094
12842,0.098
12843,0.098
12844,0.102
12845,0.102
12846,0.100
12847,0.106
12848,0.106
12849,0.106
12850,0.106
12851,0.104
12852,0.108
12853,0.110
12854,0.110
12855,0.110
12856,0.116
12857,0.112
12858,0.108
12859,0.112
12860,0.112
12861,0.108
12862,0.106
12863,0.112
12864,0.108
12865,0.106
12866,0.112
12867,0.112
12868,0.112
12869,0.112
12870,0.108
12871,0.110
12872,0.112
12873,0.114
12874,0.110
12875,0.112
12876,0.112
12877,0.112
12878,0.112
12879,0.118
12880,0.114
12881,0.116
12882,0.126
12883,0.114
12884,0.120
12885,0.126
12886,0.126
12887,0.124
12888,0.126
12889,0.132
12890,0.134
12891,0.132
12892,0.138
12893,0.144
12894,0.150
12895,0.150
12896,0.146
12897,0.146
12898,0.144
12899,0.146
12900,0.144
12901,0.146
12902,0.144
12903,0.138
12904,0.134
12905,0.134
12906,0.126
12907,0.128
12908,0.122
12909,0.122
12910,0.116
12911,0.110
12912,0.110
12913,0.110
12914,0.108
12915,0.108
12916,0.104
12917,0.104
12918,0.106
12919,0.104
12920,0.104
12921,0.106
12922,0.108
12923,0.106
12924,0.108
12925,0.106
12926,0.112
12927,0.112
12928,0.108
12929,0.108
12930,0.102
12931,0.086
12932,0.070
12933,0.056
12934,0.068
12935,0.104
12936,0.176
12937,0.290
12938,0.428
12939,0.566
12940,0.680
12941,0.764
12942,0.758
12943,0.584
12944,0.384
12945,0.208
12946,0.102
12947,0.070
12948,0.064
12949,0.056
12950,0.052
12951,0.058
12952,0.070
12953,0.080
12954,0.076
12955,0.078
12956,0.080
12957,0.078
12958,0.074
12959,0.078
12960,0.080
12961,0.076
12962,0.080
12963,0.080
12964,0.082
12965,0.086
12966,0.088
12967,0.090
12968,0.092
12969,0.096
12970,0.096
12971,0.096
12972,0.098
12973,0.104
12974,0.104
12975,0.104
12976,0.106
12977,0.106
12978,0.112
12979,0.112
12980,0.114
12981,0.120
12982,0.112
12983,0.120
12984,0.120
12985,0.126
12986,0.126
12987,0.128
12988,0.134
12989,0.136
12990,0.138
12991,0.140
12992,0.146
12993,0.150
12994,0.148
12995,0.156
12996,0.160
12997,0.160
12998,0.168
12999,0.168
13000,0.170
13001,0.178
13002,0.178
13003,0.184
13004,0.184
13005,0.186
13006,0.186
13007,0.184
13008,0.184
13009,0.188
13010,0.184
13011,0.178
13012,0.168
13013,0.162
13014,0.146
13015,0.140
13016,0.126
13017,0.114
13018,0.108
13019,0.096
13020,0.088
13021,0.084
13022,0.080
13023,0.078
13024,0.072
13025,0.072
13026,0.070
13027,0.072
13028,0.070
13029,0.072
13030,0.072
13031,0.074
13032,0.074
13033,0.072
13034,0.072
13035,0.078
13036,0.076
13037,0.078
13038,0.078
13039,0.078
13040,0.078
13041,0.080
13042,0.082
13043,0.082
13044,0.084
13045,0.082
13046,0.086
13047,0.088
13048,0.088
13049,0.086
13050,0.088
13051,0.092
13052,0.092
13053,0.090
13054,0.092
13055,0.096
13056,0.098
13057,0.094
13058,0.096
13059,0.100
13060,0.102
13061,0.102
13062,0.102
13063,0.104
13064,0.106
13065,0.104
13066,0.106
13067,0.106
13068,0.110
13069,0.106
13070,0.112
13071,0.112
13072,0.112
13073,0.112
13074,0.110
13075,0.110
13076,0.110
13077,0.112
13078,0.106
13079,0.108
13080,0.112
13081,0.112
13082,0.106
13083,0.108
13084,0.110
13085,0.108
13086,0.112
13087,0.110
13088,0.112
13089,0.112
13090,0.114
13091,0.114
13092,0.114
13093,0.116
13094,0.114
13095,0.112
13096,0.114
13097,0.120
13098,0.116
13099,0.116
13100,0.114
13101,0.116
13102,0.114
13103,0.118
13104,0.120
13105,0.126
13106,0.126
13107,0.128
13108,0.128
13109,0.134
13110,0.134
13111,0.136
13112,0.138
13113,0.146
13114,0.146
13115,0.152
13116,0.152
13117,0.152
13118,0.150
13119,0.152
13120,0.146
13121,0.146
13122,0.152
13123,0.150
13124,0.140
13125,0.142
13126,0.136
13127,0.134
13128,0.124
13129,0.124
13130,0.120
13131,0.116
13132,0.112
13133,0.112
13134,0.112
13135,0.110
13136,0.106
13137,0.104
13138,0.108
13139,0.112
13140,0.104
13141,0.104
13142,0.108
13143,0.110
13144,0.110
13145,0.108
13146,0.104
13147,0.112
13148,0.108
13149,0.112
13150,0.108
13151,0.102
13152,0.086
13153,0.070
13154,0.062
13155,0.072
13156,0.116
13157,0.188
13158,0.310
13159,0.436
13160,0.576
13161,0.688
13162,0.770
13163,0.740
13164,0.562
13165,0.364
13166,0.192
13167,0.098
13168,0.078
13169,0.066
13170,0.062
13171,0.058
13172,0.066
13173,0.080
13174,0.080
13175,0.076
13176,0.078
13177,0.076
13178,0.074
13179,0.072
13180,0.076
13181,0.080
13182,0.080
13183,0.080
13184,0.082
13185,0.088
13186,0.088
13187,0.088
13188,0.088
13189,0.090
13190,0.096
13191,0.096
13192,0.096
13193,0.100
13194,0.102
13195,0.102
13196,0.104
13197,0.104
13198,0.108
13199,0.112
13200,0.112
13201,0.114
13202,0.114
13203,0.120
13204,0.120
13205,0.120
13206,0.126
13207,0.128
13208,0.128
13209,0.132
13210,0.138
13211,0.136
13212,0.138
13213,0.142
13214,0.146
13215,0.152
13216,0.154
13217,0.154
13218,0.162
13219,0.168
13220,0.170
13221,0.172
13222,0.174
13223,0.184
13224,0.184
13225,0.184
13226,0.190
13227,0.192
13228,0.188
13229,0.190
13230,0.186
13231,0.186
13232,0.180
13233,0.172
13234,0.160
13235,0.152
13236,0.140
13237,0.128
13238,0.120
13239,0.112
13240,0.098
13241,0.092
13242,0.088
13243,0.086
13244,0.080
13245,0.074
13246,0.074
13247,0.078
13248,0.078
13249,0.072
13250,0.072
13251,0.072
13252,0.076
13253,0.076
13254,0.072
13255,0.080
13256,0.080
13257,0.080
13258,0.078
13259,0.082
13260,0.084
13261,0.082
13262,0.084
13263,0.088
13264,0.088
13265,0.094
13266,0.086
13267,0.092
13268,0.096
13269,0.094
13270,0.094
13271,0.094
13272,0.096
13273,0.096
13274,0.096
13275,0.096
13276,0.100
13277,0.096
13278,0.096
13279,0.096
13280,0.104
13281,0.104
13282,0.104
13283,0.102
13284,0.104
13285,0.106
13286,0.104
13287,0.104
13288,0.106
13289,0.108
13290,0.112
13291,0.108
13292,0.110
13293,0.110
13294,0.112
13295,0.110
13296,0.112
13297,0.112
13298,0.110
13299,0.108
13300,0.110
13301,0.114
13302,0.112
13303,0.110
13304,0.110
13305,0.112
13306,0.112
13307,0.114
13308,0.112
13309,0.114
13310,0.114
13311,0.116
13312,0.112
13313,0.112
13314,0.120
13315,0.116
13316,0.114
13317,0.116
13318,0.118
13319,0.120
13320,0.118
13321,0.116
13322,0.120
13323,0.120
13324,0.118
13325,0.118
13326,0.114
13327,0.120
13328,0.118
13329,0.120
13330,0.120
13331,0.124
13332,0.128
13333,0.128
13334,0.132
13335,0.132
13336,0.136
13337,0.136
13338,0.136
13339,0.144
13340,0.150
13341,0.150
13342,0.154
13343,0.152
13344,0.154
13345,0.150
13346,0.152
13347,0.154
13348,0.156
13349,0.152
13350,0.148
13351,0.146
13352,0.142
13353,0.134
13354,0.128
13355,0.128
13356,0.128
13357,0.120
13358,0.116
13359,0.114
13360,0.116
13361,0.108
13362,0.112
13363,0.112
13364,0.112
13365,0.108
13366,0.108
13367,0.106
13368,0.112
13369,0.112
13370,0.106
13371,0.108
13372,0.110
13373,0.110
13374,0.112
13375,0.112
13376,0.114
13377,0.110
13378,0.098
13379,0.084
13380,0.072
13381,0.062
13382,0.076
13383,0.120
13384,0.198
13385,0.320
13386,0.448
13387,0.580
13388,0.688
13389,0.764
13390,0.724
13391,0.538
13392,0.344
13393,0.184
13394,0.098
13395,0.070
13396,0.062
13397,0.062
13398,0.060
13399,0.064
13400,0.072
13401,0.080
13402,0.082
13403,0.078
13404,0.074
13405,0.080
13406,0.076
13407,0.080
13408,0.078
13409,0.080
13410,0.082
13411,0.086
13412,0.080
13413,0.086
13414,0.090
13415,0.094
13416,0.090
13417,0.096
13418,0.102
13419,0.102
13420,0.098
13421,0.104
13422,0.106
13423,0.108
13424,0.108
13425,0.110
13426,0.116
13427,0.114
13428,0.118
13429,0.114
13430,0.118
13431,0.122
13432,0.122
13433,0.128
13434,0.130
13435,0.132
13436,0.128
13437,0.136
13438,0.138
13439,0.140
13440,0.146
13441,0.148
13442,0.152
13443,0.154
13444,0.160
13445,0.158
13446,0.162
13447,0.170
13448,0.172
13449,0.176
13450,0.178
13451,0.182
13452,0.186
13453,0.188
13454,0.190
13455,0.188
13456,0.188
13457,0.188
13458,0.180
13459,0.178
13460,0.172
13461,0.160
13462,0.152
13463,0.144
13464,0.132
13465,0.120
13466,0.112
13467,0.104
13468,0.100
13469,0.092
13470,0.088
13471,0.082
13472,0.082
13473,0.078
13474,0.072
13475,0.072
13476,0.078
13477,0.074
13478,0.072
13479,0.074
13480,0.074
13481,0.076
13482,0.080
13483,0.078
13484,0.080
13485,0.080
13486,0.082
13487,0.080
13488,0.086
13489,0.090
13490,0.088
13491,0.088
13492,0.088
13493,0.088
13494,0.090
13495,0.096
13496,0.092
13497,0.096
13498,0.098
13499,0.096
13500,0.096
13501,0.098
13502,0.098
13503,0.096
13504,0.098
13505,0.102
13506,0.100
13507,0.100
13508,0.104
13509,0.104
13510,0.106
13511,0.106
13512,0.104
13513,0.108
13514,0.112
13515,0.108
13516,0.108
13517,0.110
13518,0.108
13519,0.110
13520,0.108
13521,0.106
13522,0.112
13523,0.112
13524,0.112
13525,0.108
13526,0.110
13527,0.116
13528,0.112
13529,0.112
13530,0.114
13531,0.116
13532,0.114
13533,0.116
13534,0.112
13535,0.114
13536,0.112
13537,0.114
13538,0.114
13539,0.112
13540,0.114
13541,0.118
13542,0.112
13543,0.118
13544,0.118
13545,0.114
13546,0.112
13547,0.118
13548,0.120
13549,0.120
13550,0.124
13551,0.128
13552,0.134
13553,0.130
13554,0.132
13555,0.130
13556,0.134
13557,0.138
13558,0.136
13559,0.144
13560,0.154
13561,0.156
13562,0.156
13563,0.154
13564,0.152
13565,0.154
13566,0.152
13567,0.152
13568,0.152
13569,0.146
13570,0.142
13571,0.134
13572,0.132
13573,0.130
13574,0.124
13575,0.128
13576,0.120
13577,0.118
13578,0.112
13579,0.112
13580,0.112
13581,0.110
13582,0.112
13583,0.108
13584,0.110
13585,0.110
13586,0.108
13587,0.104
13588,0.106
13589,0.110
13590,0.112
13591,0.106
13592,0.112
13593,0.112
13594,0.114
13595,0.110
13596,0.104
13597,0.088
13598,0.076
13599,0.064
13600,0.068
13601,0.096
13602,0.152
13603,0.260
13604,0.394
13605,0.530
13606,0.650
13607,0.740
13608,0.758
13609,0.604
13610,0.408
13611,0.234
13612,0.114
13613,0.072
13614,0.058
13615,0.064
13616,0.056
13617,0.054
13618,0.066
13619,0.080
13620,0.084
13621,0.082
13622,0.084
13623,0.082
13624,0.080
13625,0.086
13626,0.082
13627,0.084
13628,0.088
13629,0.094
13630,0.094
13631,0.096
13632,0.096
13633,0.094
13634,0.096
13635,0.102
13636,0.102
13637,0.104
13638,0.108
13639,0.112
13640,0.110
13641,0.112
13642,0.112
13643,0.116
13644,0.118
13645,0.116
13646,0.118
13647,0.120
13648,0.122
13649,0.120
13650,0.126
13651,0.128
13652,0.130
13653,0.132
13654,0.134
13655,0.138
13656,0.138
13657,0.144
13658,0.150
13659,0.148
13660,0.154
13661,0.156
13662,0.156
13663,0.160
13664,0.168
13665,0.168
13666,0.172
13667,0.178
13668,0.178
13669,0.178
13670,0.184
13671,0.182
13672,0.184
13673,0.186
13674,0.184
13675,0.184
13676,0.184
13677,0.178
13678,0.174
13679,0.162
13680,0.156
13681,0.144
13682,0.132
13683,0.122
13684,0.112
13685,0.104
13686,0.096
13687,0.090
13688,0.084
13689,0.086
13690,0.078
13691,0.074
13692,0.072
13693,0.076
13694,0.076
13695,0.076
13696,0.076
13697,0.078
13698,0.074
13699,0.076
13700,0.076
13701,0.076
13702,0.080
13703,0.078
13704,0.080
13705,0.080
13706,0.082
13707,0.086
13708,0.082
13709,0.086
13710,0.088
13711,0.088
13712,0.088
13713,0.092
13714,0.092
13715,0.096
13716,0.096
13717,0.096
13718,0.096
13719,0.096
13720,0.098
13721,0.096
13722,0.102
13723,0.104
13724,0.102
13725,0.102
13726,0.102
13727,0.104
13728,0.104
13729,0.110
13730,0.108
13731,0.112
13732,0.110
13733,0.108
13734,0.112
13735,0.112
13736,0.112
13737,0.112
13738,0.112
13739,0.112
13740,0.112
13741,0.116
13742,0.112
13743,0.108
13744,0.112
13745,0.112
13746,0.112
13747,0.112
13748,0.112
13749,0.112
13750,0.112
13751,0.112
13752,0.112
13753,0.112
13754,0.112
13755,0.116
13756,0.112
13757,0.112
13758,0.112
13759,0.118
13760,0.116
13761,0.120
13762,0.114
13763,0.114
13764,0.114
13765,0.116
13766,0.118
13767,0.124
13768,0.124
13769,0.128
13770,0.130
13771,0.128
13772,0.130
13773,0.136
13774,0.140
13775,0.142
13776,0.146
13777,0.152
13778,0.152
13779,0.152
13780,0.148
13781,0.152
13782,0.152
13783,0.152
13784,0.148
13785,0.146
13786,0.142
13787,0.136
13788,0.134
13789,0.128
13790,0.124
13791,0.120
13792,0.116
13793,0.120
13794,0.112
13795,0.108
13796,0.108
13797,0.110
13798,0.110
13799,0.104
13800,0.108
13801,0.106
13802,0.104
13803,0.108
13804,0.104
13805,0.108
13806,0.110
13807,0.108
13808,0.108
13809,0.108
13810,0.114
13811,0.112
13812,0.112
13813,0.094
13814,0.082
13815,0.064
13816,0.064
13817,0.076
13818,0.126
13819,0.212
13820,0.344
13821,0.480
13822,0.608
13823,0.710
13824,0.772
13825,0.678
13826,0.480
13827,0.296
13828,0.148
13829,0.080
13830,0.056
13831,0.054
13832,0.056
13833,0.048
13834,0.056
13835,0.074
13836,0.082
13837,0.080
13838,0.080
13839,0.080
13840,0.080
13841,0.082
13842,0.080
13843,0.084
13844,0.086
13845,0.088
13846,0.088
13847,0.088
13848,0.096
13849,0.096
13850,0.096
13851,0.104
13852,0.102
13853,0.102
13854,0.102
13855,0.102
13856,0.104
13857,0.106
13858,0.110
13859,0.108
13860,0.112
13861,0.114
13862,0.114
13863,0.114
13864,0.118
13865,0.122
13866,0.124
13867,0.126
13868,0.130
13869,0.132
13870,0.136
13871,0.134
13872,0.136
13873,0.138
13874,0.144
13875,0.144
13876,0.150
13877,0.156
13878,0.156
13879,0.158
13880,0.160
13881,0.168
13882,0.168
13883,0.168
13884,0.172
13885,0.180
13886,0.178
13887,0.180
13888,0.184
13889,0.180
13890,0.182
13891,0.182
13892,0.176
13893,0.176
13894,0.170
13895,0.164
13896,0.152
13897,0.144
13898,0.140
13899,0.122
13900,0.114
13901,0.104
13902,0.098
13903,0.092
13904,0.088
13905,0.082
13906,0.082
13907,0.076
13908,0.072
13909,0.070
13910,0.072
13911,0.072
13912,0.074
13913,0.076
13914,0.076
13915,0.074
13916,0.080
13917,0.080
13918,0.080
13919,0.082
13920,0.084
13921,0.080
13922,0.080
13923,0.084
13924,0.086
13925,0.082
13926,0.088
13927,0.088
13928,0.088
13929,0.090
13930,0.092
13931,0.092
13932,0.096
13933,0.098
13934,0.098
13935,0.100
13936,0.100
13937,0.098
13938,0.100
13939,0.104
13940,0.106
13941,0.102
13942,0.104
13943,0.106
13944,0.104
13945,0.110
13946,0.108
13947,0.108
13948,0.114
13949,0.112
13950,0.108
13951,0.106
13952,0.110
13953,0.106
13954,0.108
13955,0.108
13956,0.112
13957,0.108
13958,0.106
13959,0.108
13960,0.112
13961,0.112
13962,0.112
13963,0.112
13964,0.110
13965,0.114
13966,0.112
13967,0.114
13968,0.112
13969,0.114
13970,0.112
13971,0.114
13972,0.112
13973,0.114
13974,0.108
13975,0.110
13976,0.106
13977,0.112
13978,0.114
13979,0.112
13980,0.112
13981,0.118
13982,0.116
13983,0.114
13984,0.114
13985,0.120
13986,0.116
13987,0.114
13988,0.124
13989,0.126
13990,0.126
13991,0.128
13992,0.132
13993,0.134
13994,0.134
13995,0.142
13996,0.140
13997,0.146
13998,0.152
13999,0.152
14000,0.148
14001,0.148
14002,0.148
14003,0.150
14004,0.148
14005,0.146
14006,0.146
14007,0.144
14008,0.136
14009,0.132
14010,0.134
14011,0.126
14012,0.120
14013,0.116
14014,0.114
14015,0.114
14016,0.112
14017,0.108
14018,0.112
14019,0.108
14020,0.108
14021,0.108
14022,0.104
14023,0.104
14024,0.106
14025,0.104
14026,0.106
14027,0.108
14028,0.112
14029,0.108
14030,0.108
14031,0.112
14032,0.112
14033,0.108
14034,0.098
14035,0.080
14036,0.066
14037,0.058
14038,0.072
14039,0.114
14040,0.192
14041,0.310
14042,0.444
14043,0.576
14044,0.684
14045,0.772
14046,0.740
14047,0.558
14048,0.360
14049,0.192
14050,0.094
14051,0.062
14052,0.064
14053,0.056
14054,0.052
14055,0.058
14056,0.074
14057,0.080
14058,0.076
14059,0.076
14060,0.078
14061,0.076
14062,0.076
14063,0.078
14064,0.080
14065,0.080
14066,0.080
14067,0.082
14068,0.084
14069,0.088
14070,0.090
14071,0.088
14072,0.094
14073,0.096
14074,0.100
14075,0.102
14076,0.096
14077,0.102
14078,0.106
14079,0.106
14080,0.104
14081,0.112
14082,0.112
14083,0.112
14084,0.112
14085,0.118
14086,0.118
14087,0.120
14088,0.120
14089,0.122
14090,0.122
14091,0.128
14092,0.126
14093,0.130
14094,0.138
14095,0.136
14096,0.136
14097,0.144
14098,0.152
14099,0.158
14100,0.156
14101,0.160
14102,0.162
14103,0.168
14104,0.170
14105,0.168
14106,0.176
14107,0.172
14108,0.176
14109,0.176
14110,0.180
14111,0.180
14112,0.182
14113,0.178
14114,0.178
14115,0.174
14116,0.164
14117,0.156
14118,0.152
14119,0.140
14120,0.128
14121,0.120
14122,0.112
14123,0.102
14124,0.096
14125,0.088
14126,0.082
14127,0.080
14128,0.076
14129,0.072
14130,0.072
14131,0.076
14132,0.076
14133,0.072
14134,0.076
14135,0.072
14136,0.078
14137,0.072
14138,0.080
14139,0.078
14140,0.082
14141,0.082
14142,0.080
14143,0.084
14144,0.086
14145,0.084
14146,0.088
14147,0.086
14148,0.088
14149,0.088
14150,0.090
14151,0.088
14152,0.094
14153,0.096
14154,0.092
14155,0.096
14156,0.104
14157,0.100
14158,0.098
14159,0.098
14160,0.100
14161,0.102
14162,0.100
14163,0.104
14164,0.104
14165,0.104
14166,0.104
14167,0.110
14168,0.104
14169,0.108
14170,0.106
14171,0.106
14172,0.106
14173,0.112
14174,0.108
14175,0.106
14176,0.108
14177,0.108
14178,0.106
14179,0.112
14180,0.112
14181,0.112
14182,0.114
14183,0.110
14184,0.108
14185,0.112
14186,0.114
14187,0.110
14188,0.110
14189,0.112
14190,0.112
14191,0.112
14192,0.112
14193,0.112
14194,0.112
14195,0.114
14196,0.110
14197,0.112
14198,0.112
14199,0.112
14200,0.112
14201,0.112
14202,0.116
14203,0.112
14204,0.118
14205,0.116
14206,0.118
14207,0.118
14208,0.112
14209,0.114
14210,0.118
14211,0.116
14212,0.118
14213,0.120
14214,0.120
14215,0.128
14216,0.128
14217,0.128
14218,0.132
14219,0.132
14220,0.132
14221,0.134
14222,0.138
14223,0.144
14224,0.148
14225,0.152
14226,0.154
14227,0.154
14228,0.152
14229,0.150
14230,0.150
14231,0.152
14232,0.152
14233,0.146
14234,0.146
14235,0.140
14236,0.134
14237,0.128
14238,0.128
14239,0.124
14240,0.120
14241,0.118
14242,0.114
14243,0.108
14244,0.112
14245,0.108
14246,0.108
14247,0.106
14248,0.112
14249,0.108
14250,0.104
14251,0.108
14252,0.110
14253,0.106
14254,0.110
14255,0.106
14256,0.112
14257,0.110
14258,0.110
14259,0.112
14260,0.112
14261,0.096
14262,0.080
14263,0.064
14264,0.060
14265,0.078
14266,0.118
14267,0.200
14268,0.320
14269,0.454
14270,0.586
14271,0.690
14272,0.768
14273,0.716
14274,0.528
14275,0.336
14276,0.174
14277,0.088
14278,0.064
14279,0.062
14280,0.060
14281,0.054
14282,0.062
14283,0.072
14284,0.080
14285,0.080
14286,0.078
14287,0.074
14288,0.076
14289,0.076
14290,0.078
14291,0.080
14292,0.080
14293,0.084
14294,0.084
14295,0.086
14296,0.090
14297,0.090
14298,0.094
14299,0.098
14300,0.096
14301,0.096
14302,0.102
14303,0.104
14304,0.104
14305,0.104
14306,0.114
14307,0.112
14308,0.106
14309,0.112
14310,0.112
14311,0.116
14312,0.120
14313,0.120
14314,0.120
14315,0.126
14316,0.126
14317,0.120
14318,0.128
14319,0.132
14320,0.130
14321,0.132
14322,0.136
14323,0.142
14324,0.144
14325,0.148
14326,0.152
14327,0.156
14328,0.160
14329,0.160
14330,0.164
14331,0.168
14332,0.172
14333,0.172
14334,0.176
14335,0.176
14336,0.178
14337,0.178
14338,0.178
14339,0.178
14340,0.178
14341,0.176
14342,0.170
14343,0.162
14344,0.162
14345,0.152
14346,0.140
14347,0.128
14348,0.122
14349,0.108
14350,0.100
14351,0.092
14352,0.090
14353,0.086
14354,0.076
14355,0.074
14356,0.072
14357,0.074
14358,0.072
14359,0.072
14360,0.076
14361,0.076
14362,0.076
14363,0.076
14364,0.078
14365,0.080
14366,0.080
14367,0.082
14368,0.082
14369,0.082
14370,0.086
14371,0.096
14372,0.086
14373,0.088
14374,0.092
14375,0.088
14376,0.088
14377,0.092
14378,0.096
14379,0.092
14380,0.094
14381,0.098
14382,0.100
14383,0.100
14384,0.100
14385,0.102
14386,0.100
14387,0.102
14388,0.102
14389,0.104
14390,0.106
14391,0.106
14392,0.104
14393,0.104
14394,0.106
14395,0.108
14396,0.108
14397,0.108
14398,0.106
14399,0.106
14400,0.112
14401,0.106
14402,0.110
14403,0.112
14404,0.108
14405,0.108
14406,0.112
14407,0.108
14408,0.108
14409,0.112
14410,0.112
14411,0.110
14412,0.112
14413,0.110
14414,0.110
14415,0.116
14416,0.112
14417,0.112
14418,0.112
14419,0.116
14420,0.112
14421,0.112
14422,0.112
14423,0.114
14424,0.112
14425,0.112
14426,0.112
14427,0.116
14428,0.114
14429,0.126
14430,0.116
14431,0.116
14432,0.118
14433,0.120
14434,0.114
14435,0.118
14436,0.118
14437,0.118
14438,0.120
14439,0.120
14440,0.128
14441,0.134
14442,0.128
14443,0.134
14444,0.134
14445,0.134
14446,0.134
14447,0.136
14448,0.144
14449,0.150
14450,0.154
14451,0.158
14452,0.156
14453,0.152
14454,0.152
14455,0.156
14456,0.152
14457,0.152
14458,0.148
14459,0.148
14460,0.140
14461,0.142
14462,0.134
14463,0.126
14464,0.126
14465,0.120
14466,0.120
14467,0.112
14468,0.112
14469,0.112
14470,0.112
14471,0.108
14472,0.108
14473,0.112
14474,0.110
14475,0.104
14476,0.104
14477,0.106
14478,0.112
14479,0.108
14480,0.110
14481,0.110
14482,0.110
14483,0.110
14484,0.112
14485,0.114
14486,0.104
14487,0.088
14488,0.068
14489,0.064
14490,0.070
14491,0.106
14492,0.172
14493,0.286
14494,0.422
14495,0.556
14496,0.666
14497,0.750
14498,0.746
14499,0.576
14500,0.384
14501,0.214
14502,0.104
14503,0.068
14504,0.056
14505,0.052
14506,0.052
14507,0.054
14508,0.064
14509,0.078
14510,0.088
14511,0.084
14512,0.082
14513,0.080
14514,0.080
14515,0.084
14516,0.080
14517,0.084
14518,0.084
14519,0.088
14520,0.088
14521,0.092
14522,0.090
14523,0.100
14524,0.098
14525,0.096
14526,0.102
14527,0.102
14528,0.104
14529,0.104
14530,0.108
14531,0.108
14532,0.112
14533,0.112
14534,0.114
14535,0.114
14536,0.120
14537,0.120
14538,0.118
14539,0.120
14540,0.124
14541,0.126
14542,0.126
14543,0.128
14544,0.132
14545,0.136
14546,0.136
14547,0.138
14548,0.146
14549,0.146
14550,0.148
14551,0.152
14552,0.158
14553,0.158
14554,0.160
14555,0.162
14556,0.164
14557,0.168
14558,0.172
14559,0.174
14560,0.176
14561,0.176
14562,0.176
14563,0.176
14564,0.176
14565,0.174
14566,0.172
14567,0.166
14568,0.162
14569,0.160
14570,0.150
14571,0.142
14572,0.132
14573,0.122
14574,0.112
14575,0.104
14576,0.102
14577,0.092
14578,0.090
14579,0.084
14580,0.080
14581,0.080
14582,0.080
14583,0.080
14584,0.080
14585,0.080
14586,0.080
14587,0.080
14588,0.082
14589,0.080
14590,0.082
14591,0.086
14592,0.080
14593,0.080
14594,0.086
14595,0.088
14596,0.086
14597,0.092
14598,0.090
14599,0.090
14600,0.092
14601,0.096
14602,0.096
14603,0.096
14604,0.098
14605,0.098
14606,0.096
14607,0.102
14608,0.102
14609,0.100
14610,0.104
14611,0.104
14612,0.104
14613,0.106
14614,0.104
14615,0.108
14616,0.108
14617,0.106
14618,0.104
14619,0.112
14620,0.112
14621,0.112
14622,0.112
14623,0.112
14624,0.112
14625,0.112
14626,0.106
14627,0.114
14628,0.112
14629,0.112
14630,0.112
14631,0.110
14632,0.112
14633,0.114
14634,0.114
14635,0.112
14636,0.112
14637,0.114
14638,0.108
14639,0.112
14640,0.112
14641,0.114
14642,0.110
14643,0.114
14644,0.116
14645,0.118
14646,0.114
14647,0.114
14648,0.118
14649,0.118
14650,0.116
14651,0.114
14652,0.120
14653,0.118
14654,0.118
14655,0.120
14656,0.124
14657,0.128
14658,0.128
14659,0.132
14660,0.132
14661,0.130
14662,0.138
14663,0.136
14664,0.140
14665,0.150
14666,0.158
14667,0.160
14668,0.152
14669,0.158
14670,0.154
14671,0.152
14672,0.152
14673,0.152
14674,0.150
14675,0.142
14676,0.140
14677,0.134
14678,0.132
14679,0.138
14680,0.126
14681,0.120
14682,0.122
14683,0.112
14684,0.112
14685,0.110
14686,0.108
14687,0.110
14688,0.112
14689,0.108
14690,0.110
14691,0.112
14692,0.106
14693,0.108
14694,0.108
14695,0.106
14696,0.106
14697,0.112
14698,0.112
14699,0.114
14700,0.112
14701,0.112
14702,0.110
14703,0.088
14704,0.074
14705,0.066
14706,0.074
14707,0.114
14708,0.178
14709,0.296
14710,0.432
14711,0.566
14712,0.682
14713,0.760
14714,0.740
14715,0.554
14716,0.364
14717,0.196
14718,0.102
14719,0.064
14720,0.058
14721,0.058
14722,0.054
14723,0.062
14724,0.076
14725,0.088
14726,0.086
14727,0.092
14728,0.090
14729,0.086
14730,0.088
14731,0.088
14732,0.092
14733,0.092
14734,0.096
14735,0.094
14736,0.096
14737,0.098
14738,0.096
14739,0.098
14740,0.102
14741,0.104
14742,0.104
14743,0.106
14744,0.110
14745,0.110
14746,0.110
14747,0.116
14748,0.118
14749,0.122
14750,0.114
14751,0.116
14752,0.120
14753,0.120
14754,0.126
14755,0.122
14756,0.128
14757,0.132
14758,0.132
14759,0.132
14760,0.136
14761,0.140
14762,0.144
14763,0.138
14764,0.130
14765,0.136
14766,0.142
14767,0.142
14768,0.144
14769,0.152
14770,0.154
14771,0.154
14772,0.162
14773,0.166
14774,0.164
14775,0.164
14776,0.168
14777,0.168
14778,0.172
14779,0.170
14780,0.170
14781,0.168
14782,0.166
14783,0.158
14784,0.152
14785,0.144
14786,0.140
14787,0.130
14788,0.120
14789,0.112
14790,0.106
14791,0.098
14792,0.088
14793,0.084
14794,0.080
14795,0.080
14796,0.074
14797,0.072
14798,0.074
14799,0.074
14800,0.072
14801,0.076
14802,0.072
14803,0.074
14804,0.072
14805,0.072
14806,0.074
14807,0.078
14808,0.082
14809,0.082
14810,0.082
14811,0.084
14812,0.084
14813,0.086
14814,0.080
14815,0.088
14816,0.090
14817,0.088
14818,0.094
14819,0.096
14820,0.096
14821,0.096
14822,0.094
14823,0.096
14824,0.098
14825,0.096
14826,0.100
14827,0.102
14828,0.104
14829,0.104
14830,0.104
14831,0.112
14832,0.104
14833,0.104
14834,0.104
14835,0.108
14836,0.110
14837,0.110
14838,0.104
14839,0.110
14840,0.112
14841,0.114
14842,0.112
14843,0.110
14844,0.114
14845,0.112
14846,0.114
14847,0.112
14848,0.110
14849,0.118
14850,0.112
14851,0.108
14852,0.112
14853,0.114
14854,0.112
14855,0.112
14856,0.112
14857,0.112
14858,0.112
14859,0.114
14860,0.112
14861,0.118
14862,0.112
14863,0.112
14864,0.116
14865,0.112
14866,0.118
14867,0.120
14868,0.122
14869,0.126
14870,0.130
14871,0.128
14872,0.128
14873,0.132
14874,0.130
14875,0.134
14876,0.136
14877,0.140
14878,0.148
14879,0.150
14880,0.154
14881,0.150
14882,0.150
14883,0.148
14884,0.150
14885,0.148
14886,0.150
14887,0.146
14888,0.142
14889,0.134
14890,0.132
14891,0.126
14892,0.122
14893,0.122
14894,0.120
14895,0.124
14896,0.112
14897,0.104
14898,0.106
14899,0.112
14900,0.108
14901,0.106
14902,0.104
14903,0.104
14904,0.106
14905,0.102
14906,0.110
14907,0.108
14908,0.110
14909,0.108
14910,0.106
14911,0.112
14912,0.114
14913,0.112
14914,0.104
14915,0.088
14916,0.072
14917,0.060
14918,0.062
14919,0.080
14920,0.130
14921,0.226
14922,0.358
14923,0.496
14924,0.622
14925,0.714
14926,0.762
14927,0.642
14928,0.440
14929,0.264
14930,0.128
14931,0.074
14932,0.054
14933,0.052
14934,0.048
14935,0.048
14936,0.056
14937,0.072
14938,0.080
14939,0.080
14940,0.084
14941,0.082
14942,0.078
14943,0.076
14944,0.082
14945,0.084
14946,0.080
14947,0.084
14948,0.086
14949,0.092
14950,0.092
14951,0.092
14952,0.096
14953,0.096
14954,0.100
14955,0.098
14956,0.102
14957,0.108
14958,0.106
14959,0.108
14960,0.112
14961,0.112
14962,0.114
14963,0.114
14964,0.120
14965,0.118
14966,0.120
14967,0.120
14968,0.124
14969,0.122
14970,0.128
14971,0.128
14972,0.130
14973,0.134
14974,0.138
14975,0.136
14976,0.142
14977,0.144
14978,0.144
14979,0.148
14980,0.150
14981,0.154
14982,0.156
14983,0.160
14984,0.160
14985,0.164
14986,0.164
14987,0.170
14988,0.168
14989,0.168
14990,0.168
14991,0.172
14992,0.170
14993,0.168
14994,0.168
14995,0.164
14996,0.158
14997,0.152
14998,0.146
14999,0.136
15000,0.128
15001,0.116
15002,0.112
15003,0.104
15004,0.096
15005,0.088
15006,0.086
15007,0.080
15008,0.080
15009,0.080
15010,0.076
15011,0.080
15012,0.078
15013,0.078
15014,0.078
15015,0.078
15016,0.080
15017,0.076
15018,0.078
15019,0.082
15020,0.082
15021,0.084
15022,0.086
15023,0.088
15024,0.090
15025,0.090
15026,0.088
15027,0.090
15028,0.090
15029,0.094
15030,0.090
15031,0.090
15032,0.096
15033,0.096
15034,0.094
15035,0.096
15036,0.096
15037,0.098
15038,0.102
15039,0.102
15040,0.104
15041,0.108
15042,0.104
15043,0.104
15044,0.112
15045,0.112
15046,0.110
15047,0.110
15048,0.112
15049,0.110
15050,0.106
15051,0.112
15052,0.110
15053,0.112
15054,0.106
15055,0.112
15056,0.112
15057,0.114
15058,0.114
15059,0.114
15060,0.112
15061,0.116
15062,0.114
15063,0.112
15064,0.112
15065,0.114
15066,0.114
15067,0.112
15068,0.112
15069,0.112
15070,0.114
15071,0.116
15072,0.114
15073,0.112
15074,0.116
15075,0.116
15076,0.112
15077,0.114
15078,0.114
15079,0.116
15080,0.120
15081,0.124
15082,0.128
15083,0.128
15084,0.128
15085,0.130
15086,0.132
15087,0.140
15088,0.144
15089,0.148
15090,0.154
15091,0.154
15092,0.148
15093,0.148
15094,0.148
15095,0.150
15096,0.148
15097,0.152
15098,0.144
15099,0.144
15100,0.138
15101,0.124
15102,0.126
15103,0.126
15104,0.118
15105,0.118
15106,0.112
15107,0.114
15108,0.112
15109,0.106
15110,0.102
15111,0.104
15112,0.106
15113,0.104
15114,0.104
15115,0.104
15116,0.104
15117,0.102
15118,0.102
15119,0.102
15120,0.106
15121,0.104
15122,0.106
15123,0.108
15124,0.108
15125,0.108
15126,0.100
15127,0.080
15128,0.066
15129,0.060
15130,0.068
15131,0.108
15132,0.180
15133,0.298
15134,0.426
15135,0.566
15136,0.676
15137,0.764
15138,0.754
15139,0.576
15140,0.376
15141,0.200
15142,0.100
15143,0.064
15144,0.058
15145,0.058
15146,0.056
15147,0.062
15148,0.070
15149,0.080
15150,0.076
15151,0.076
15152,0.076
15153,0.078
15154,0.078
15155,0.076
15156,0.076
15157,0.080
15158,0.084
15159,0.084
15160,0.084
15161,0.086
15162,0.090
15163,0.088
15164,0.088
15165,0.096
15166,0.096
15167,0.096
15168,0.100
15169,0.102
15170,0.102
15171,0.108
15172,0.104
15173,0.108
15174,0.110
15175,0.114
15176,0.112
15177,0.116
15178,0.120
15179,0.120
15180,0.120
15181,0.124
15182,0.126
15183,0.128
15184,0.130
15185,0.134
15186,0.138
15187,0.138
15188,0.142
15189,0.138
15190,0.148
15191,0.150
15192,0.152
15193,0.156
15194,0.160
15195,0.164
15196,0.166
15197,0.168
15198,0.172
15199,0.176
15200,0.178
15201,0.174
15202,0.176
15203,0.180
15204,0.178
15205,0.174
15206,0.172
15207,0.168
15208,0.160
15209,0.154
15210,0.144
15211,0.136
15212,0.126
15213,0.114
15214,0.112
15215,0.102
15216,0.096
15217,0.088
15218,0.082
15219,0.080
15220,0.080
15221,0.078
15222,0.074
15223,0.072
15224,0.074
15225,0.070
15226,0.076
15227,0.074
15228,0.078
15229,0.080
15230,0.080
15231,0.076
15232,0.080
15233,0.084
15234,0.082
15235,0.086
15236,0.088
15237,0.088
15238,0.086
15239,0.090
15240,0.092
15241,0.090
15242,0.092
15243,0.090
15244,0.096
15245,0.096
15246,0.094
15247,0.096
15248,0.092
15249,0.096
15250,0.102
15251,0.100
15252,0.098
15253,0.100
15254,0.104
15255,0.102
15256,0.104
15257,0.104
15258,0.108
15259,0.112
15260,0.104
15261,0.106
15262,0.112
15263,0.108
15264,0.106
15265,0.112
15266,0.110
15267,0.106
15268,0.110
15269,0.110
15270,0.110
15271,0.112
15272,0.110
15273,0.110
15274,0.112
15275,0.108
15276,0.108
15277,0.112
15278,0.112
15279,0.112
15280,0.114
15281,0.114
15282,0.120
15283,0.120
15284,0.122
15285,0.124
15286,0.126
15287,0.128
15288,0.132
15289,0.134
15290,0.136
15291,0.146
15292,0.154
15293,0.152
15294,0.150
15295,0.152
15296,0.148
15297,0.152
15298,0.152
15299,0.144
15300,0.144
15301,0.140
15302,0.136
15303,0.128
15304,0.124
15305,0.120
15306,0.120
15307,0.126
15308,0.112
15309,0.112
15310,0.108
15311,0.106
15312,0.104
15313,0.100
15314,0.096
15315,0.100
15316,0.098
15317,0.104
15318,0.096
15319,0.098
15320,0.106
15321,0.112
15322,0.104
15323,0.100
15324,0.104
15325,0.104
15326,0.108
15327,0.102
15328,0.092
15329,0.076
15330,0.060
15331,0.052
15332,0.070
15333,0.120
15334,0.200
15335,0.324
15336,0.462
15337,0.592
15338,0.690
15339,0.768
15340,0.704
15341,0.502
15342,0.314
15343,0.158
15344,0.080
15345,0.054
15346,0.054
15347,0.054
15348,0.048
15349,0.060
15350,0.072
15351,0.078
15352,0.078
15353,0.080
15354,0.076
15355,0.076
15356,0.076
15357,0.082
15358,0.082
15359,0.086
15360,0.086
15361,0.088
15362,0.088
15363,0.088
15364,0.088
15365,0.092
15366,0.094
15367,0.098
15368,0.102
15369,0.104
15370,0.106
15371,0.104
15372,0.104
15373,0.108
15374,0.112
15375,0.112
15376,0.118
15377,0.116
15378,0.120
15379,0.124
15380,0.120
15381,0.124
15382,0.128
15383,0.128
15384,0.134
15385,0.130
15386,0.136
15387,0.140
15388,0.138
15389,0.140
15390,0.144
15391,0.152
15392,0.152
15393,0.152
15394,0.156
15395,0.160
15396,0.162
15397,0.170
15398,0.176
15399,0.174
15400,0.176
15401,0.178
15402,0.178
15403,0.182
15404,0.182
15405,0.184
15406,0.180
15407,0.180
15408,0.174
15409,0.166
15410,0.158
15411,0.150
15412,0.146
15413,0.130
15414,0.120
15415,0.114
15416,0.108
15417,0.104
15418,0.096
15419,0.088
15420,0.088
15421,0.082
15422,0.080
15423,0.078
15424,0.078
15425,0.074
15426,0.076
15427,0.074
15428,0.076
15429,0.076
15430,0.078
15431,0.080
15432,0.084
15433,0.086
15434,0.082
15435,0.082
15436,0.086
15437,0.088
15438,0.088
15439,0.084
15440,0.088
15441,0.092
15442,0.092
15443,0.094
15444,0.096
15445,0.096
15446,0.096
15447,0.096
15448,0.092
15449,0.098
15450,0.104
15451,0.100
15452,0.096
15453,0.106
15454,0.110
15455,0.104
15456,0.106
15457,0.108
15458,0.106
15459,0.106
15460,0.110
15461,0.104
15462,0.108
15463,0.110
15464,0.106
15465,0.108
15466,0.110
15467,0.112
15468,0.108
15469,0.110
15470,0.110
15471,0.112
15472,0.112
15473,0.118
15474,0.120
15475,0.122
15476,0.122
15477,0.126
15478,0.130
15479,0.128
15480,0.136
15481,0.136
15482,0.136
15483,0.150
15484,0.148
15485,0.150
15486,0.146
15487,0.144
15488,0.142
15489,0.144
15490,0.144
15491,0.144
15492,0.142
15493,0.132
15494,0.128
15495,0.128
15496,0.124
15497,0.118
15498,0.116
15499,0.112
15500,0.108
15501,0.104
15502,0.104
15503,0.100
15504,0.102
15505,0.098
15506,0.098
15507,0.098
15508,0.100
15509,0.104
15510,0.098
15511,0.100
15512,0.104
15513,0.104
15514,0.104
15515,0.102
15516,0.108
15517,0.104
15518,0.098
15519,0.086
15520,0.064
15521,0.058
15522,0.054
15523,0.070
15524,0.120
15525,0.220
15526,0.352
15527,0.490
15528,0.620
15529,0.712
15530,0.762
15531,0.642
15532,0.440
15533,0.256
15534,0.120
15535,0.064
15536,0.052
15537,0.048
15538,0.048
15539,0.048
15540,0.058
15541,0.072
15542,0.076
15543,0.080
15544,0.076
15545,0.076
15546,0.082
15547,0.080
15548,0.088
15549,0.086
15550,0.086
15551,0.090
15552,0.088
15553,0.088
15554,0.092
15555,0.094
15556,0.096
15557,0.102
15558,0.100
15559,0.098
15560,0.098
15561,0.098
15562,0.104
15563,0.112
15564,0.112
15565,0.106
15566,0.112
15567,0.114
15568,0.114
15569,0.114
15570,0.120
15571,0.122
15572,0.126
15573,0.128
15574,0.128
15575,0.130
15576,0.132
15577,0.136
15578,0.142
15579,0.142
15580,0.144
15581,0.150
15582,0.148
15583,0.152
15584,0.154
15585,0.160
15586,0.164
15587,0.166
15588,0.168
15589,0.168
15590,0.170
15591,0.170
15592,0.170
15593,0.176
15594,0.176
15595,0.182
15596,0.180
15597,0.174
15598,0.170
15599,0.168
15600,0.162
15601,0.152
15602,0.142
15603,0.138
15604,0.130
15605,0.118
15606,0.106
15607,0.100
15608,0.096
15609,0.090
15610,0.086
15611,0.082
15612,0.080
15613,0.076
15614,0.070
15615,0.072
15616,0.072
15617,0.076
15618,0.076
15619,0.076
15620,0.080
15621,0.082
15622,0.082
15623,0.074
15624,0.080
15625,0.084
15626,0.084
15627,0.084
15628,0.088
15629,0.088
15630,0.088
15631,0.088
15632,0.096
15633,0.096
15634,0.094
15635,0.094
15636,0.096
15637,0.096
15638,0.100
15639,0.098
15640,0.098
15641,0.098
15642,0.104
15643,0.102
15644,0.106
15645,0.112
15646,0.106
15647,0.104
15648,0.104
15649,0.108
15650,0.106
15651,0.112
15652,0.108
15653,0.112
15654,0.112
15655,0.114
15656,0.116
15657,0.120
15658,0.120
15659,0.126
15660,0.126
15661,0.128
15662,0.128
15663,0.128
15664,0.128
15665,0.138
15666,0.148
15667,0.152
15668,0.148
15669,0.142
15670,0.144
15671,0.150
15672,0.144
15673,0.146
15674,0.144
15675,0.136
15676,0.128
15677,0.122
15678,0.120
15679,0.120
15680,0.120
15681,0.112
15682,0.108
15683,0.108
15684,0.106
15685,0.104
15686,0.100
15687,0.104
15688,0.106
15689,0.102
15690,0.102
15691,0.104
15692,0.100
15693,0.100
15694,0.102
15695,0.102
15696,0.102
15697,0.104
15698,0.100
15699,0.108
15700,0.108
15701,0.098
15702,0.078
15703,0.072
15704,0.056
15705,0.064
15706,0.094
15707,0.160
15708,0.280
15709,0.418
15710,0.548
15711,0.674
15712,0.754
15713,0.736
15714,0.552
15715,0.354
15716,0.190
15717,0.090
15718,0.048
15719,0.040
15720,0.046
15721,0.042
15722,0.048
15723,0.056
15724,0.068
15725,0.078
15726,0.080
15727,0.080
15728,0.080
15729,0.080
15730,0.080
15731,0.082
15732,0.088
15733,0.090
15734,0.094
15735,0.092
15736,0.096
15737,0.098
15738,0.100
15739,0.096
15740,0.102
15741,0.106
15742,0.106
15743,0.104
15744,0.102
15745,0.104
15746,0.104
15747,0.114
15748,0.116
15749,0.120
15750,0.120
15751,0.120
15752,0.114
15753,0.120
15754,0.124
15755,0.126
15756,0.128
15757,0.130
15758,0.136
15759,0.136
15760,0.138
15761,0.142
15762,0.148
15763,0.146
15764,0.146
15765,0.148
15766,0.152
15767,0.154
15768,0.158
15769,0.160
15770,0.166
15771,0.168
15772,0.168
15773,0.176
15774,0.168
15775,0.168
15776,0.168
15777,0.168
15778,0.172
15779,0.166
15780,0.160
15781,0.154
15782,0.150
15783,0.146
15784,0.140
15785,0.128
15786,0.124
15787,0.114
15788,0.106
15789,0.096
15790,0.094
15791,0.096
15792,0.088
15793,0.082
15794,0.082
15795,0.080
15796,0.076
15797,0.076
15798,0.076
15799,0.082
15800,0.082
15801,0.086
15802,0.084
15803,0.090
15804,0.088
15805,0.086
15806,0.086
15807,0.084
15808,0.086
15809,0.086
15810,0.086
15811,0.090
15812,0.088
15813,0.096
15814,0.096
15815,0.094
15816,0.100
15817,0.098
15818,0.096
15819,0.098
15820,0.102
15821,0.106
15822,0.100
15823,0.102
15824,0.104
15825,0.106
15826,0.104
15827,0.106
15828,0.104
15829,0.110
15830,0.112
15831,0.108
15832,0.114
15833,0.112
15834,0.114
15835,0.114
15836,0.118
15837,0.120
15838,0.124
15839,0.126
15840,0.128
15841,0.132
15842,0.134
15843,0.134
15844,0.138
15845,0.142
15846,0.144
15847,0.140
15848,0.140
15849,0.140
15850,0.144
15851,0.142
15852,0.138
15853,0.136
15854,0.132
15855,0.130
15856,0.120
15857,0.118
15858,0.120
15859,0.118
15860,0.110
15861,0.106
15862,0.110
15863,0.102
15864,0.100
15865,0.100
15866,0.102
15867,0.100
15868,0.100
15869,0.098
15870,0.096
15871,0.100
15872,0.102
15873,0.098
15874,0.104
15875,0.106
15876,0.102
15877,0.102
15878,0.108
15879,0.104
15880,0.088
15881,0.074
15882,0.064
15883,0.064
15884,0.082
15885,0.128
15886,0.214
15887,0.344
15888,0.482
15889,0.602
15890,0.700
15891,0.750
15892,0.632
15893,0.430
15894,0.254
15895,0.116
15896,0.064
15897,0.048
15898,0.048
15899,0.048
15900,0.050
15901,0.056
15902,0.072
15903,0.084
15904,0.086
15905,0.080
15906,0.078
15907,0.080
15908,0.082
15909,0.082
15910,0.084
15911,0.094
15912,0.084
15913,0.080
15914,0.080
15915,0.082
15916,0.088
15917,0.096
15918,0.096
15919,0.098
15920,0.104
15921,0.102
15922,0.102
15923,0.106
15924,0.106
15925,0.110
15926,0.108
15927,0.112
15928,0.112
15929,0.114
15930,0.116
15931,0.114
15932,0.118
15933,0.124
15934,0.124
15935,0.124
15936,0.128
15937,0.138
15938,0.144
15939,0.146
15940,0.140
15941,0.138
15942,0.136
15943,0.146
15944,0.152
15945,0.158
15946,0.166
15947,0.154
15948,0.146
15949,0.152
15950,0.158
15951,0.160
15952,0.164
15953,0.162
15954,0.162
15955,0.162
15956,0.164
15957,0.162
15958,0.164
15959,0.162
15960,0.152
15961,0.148
15962,0.146
15963,0.144
15964,0.128
15965,0.118
15966,0.112
15967,0.102
15968,0.096
15969,0.084
15970,0.086
15971,0.078
15972,0.072
15973,0.064
15974,0.068
15975,0.066
15976,0.066
15977,0.064
15978,0.070
15979,0.072
15980,0.072
15981,0.072
15982,0.078
15983,0.088
15984,0.094
15985,0.088
15986,0.088
15987,0.086
15988,0.090
15989,0.088
15990,0.088
15991,0.090
15992,0.090
15993,0.080
15994,0.078
15995,0.080
15996,0.088
15997,0.086
15998,0.088
15999,0.096
16000,0.098
16001,0.100
16002,0.098
16003,0.102
16004,0.108
16005,0.102
16006,0.096
16007,0.098
16008,0.102
16009,0.102
16010,0.102
16011,0.104
16012,0.108
16013,0.112
16014,0.114
16015,0.114
16016,0.118
16017,0.120
16018,0.124
16019,0.122
16020,0.134
16021,0.140
16022,0.138
16023,0.160
16024,0.168
16025,0.160
16026,0.146
16027,0.128
16028,0.122
16029,0.124
16030,0.128
16031,0.132
16032,0.130
16033,0.136
16034,0.128
16035,0.116
16036,0.112
16037,0.116
16038,0.112
16039,0.110
16040,0.104
16041,0.104
16042,0.096
16043,0.098
16044,0.106
16045,0.112
16046,0.114
16047,0.112
16048,0.100
16049,0.098
16050,0.096
16051,0.096
16052,0.096
16053,0.102
16054,0.108
16055,0.112
16056,0.108
16057,0.098
16058,0.090
16059,0.080
16060,0.064
16061,0.050
16062,0.048
16063,0.062
16064,0.104
16065,0.182
16066,0.316
16067,0.460
16068,0.600
16069,0.704
16070,0.792
16071,0.782
16072,0.600
16073,0.376
16074,0.180
16075,0.072
16076,0.040
16077,0.034
16078,0.040
16079,0.040
16080,0.058
16081,0.062
16082,0.072
16083,0.072
16084,0.070
16085,0.066
16086,0.074
16087,0.080
16088,0.078
16089,0.074
16090,0.076
16091,0.072
16092,0.086
16093,0.118
16094,0.136
16095,0.120
16096,0.104
16097,0.078
16098,0.064
16099,0.062
16100,0.072
16101,0.082
16102,0.090
16103,0.094
16104,0.098
16105,0.102
16106,0.100
16107,0.104
16108,0.110
16109,0.114
16110,0.112
16111,0.114
16112,0.120
16113,0.120
16114,0.124
16115,0.124
16116,0.132
16117,0.132
16118,0.134
16119,0.136
16120,0.142
16121,0.150
16122,0.146
16123,0.144
16124,0.150
16125,0.152
16126,0.154
16127,0.166
16128,0.184
16129,0.184
16130,0.180
16131,0.190
16132,0.184
16133,0.176
16134,0.176
16135,0.168
16136,0.158
16137,0.150
16138,0.146
16139,0.146
16140,0.144
16141,0.144
16142,0.136
16143,0.128
16144,0.116
16145,0.112
16146,0.108
16147,0.100
16148,0.090
16149,0.084
16150,0.080
16151,0.080
16152,0.078
16153,0.078
16154,0.076
16155,0.076
16156,0.072
16157,0.072
16158,0.076
16159,0.080
16160,0.078
16161,0.080
16162,0.082
16163,0.082
16164,0.084
16165,0.080
16166,0.088
16167,0.088
16168,0.088
16169,0.090
16170,0.092
16171,0.090
16172,0.092
16173,0.094
16174,0.098
16175,0.098
16176,0.098
16177,0.100
16178,0.102
16179,0.104
16180,0.102
16181,0.100
16182,0.102
16183,0.102
16184,0.104
16185,0.098
16186,0.104
16187,0.104
16188,0.108
16189,0.108
16190,0.108
16191,0.110
16192,0.110
16193,0.108
16194,0.104
16195,0.108
16196,0.116
16197,0.114
16198,0.120
16199,0.118
16200,0.124
16201,0.128
16202,0.128
16203,0.130
16204,0.134
16205,0.138
16206,0.140
16207,0.144
16208,0.146
16209,0.144
16210,0.136
16211,0.144
16212,0.144
16213,0.144
16214,0.140
16215,0.138
16216,0.134
16217,0.126
16218,0.122
16219,0.120
16220,0.112
16221,0.116
16222,0.112
16223,0.106
16224,0.104
16225,0.104
16226,0.102
16227,0.098
16228,0.104
16229,0.102
16230,0.100
16231,0.098
16232,0.098
16233,0.102
16234,0.102
16235,0.100
16236,0.098
16237,0.100
16238,0.104
16239,0.106
16240,0.100
16241,0.106
16242,0.098
16243,0.080
16244,0.060
16245,0.052
16246,0.054
16247,0.082
16248,0.146
16249,0.248
16250,0.384
16251,0.524
16252,0.652
16253,0.752
16254,0.792
16255,0.656
16256,0.448
16257,0.252
16258,0.116
16259,0.076
16260,0.064
16261,0.054
16262,0.056
16263,0.060
16264,0.072
16265,0.072
16266,0.078
16267,0.072
16268,0.072
16269,0.072
16270,0.072
16271,0.076
16272,0.078
16273,0.076
16274,0.078
16275,0.082
16276,0.082
16277,0.082
16278,0.086
16279,0.088
16280,0.092
16281,0.090
16282,0.090
16283,0.098
16284,0.098
16285,0.098
16286,0.096
16287,0.102
16288,0.106
16289,0.106
16290,0.106
16291,0.106
16292,0.112
16293,0.114
16294,0.114
16295,0.118
16296,0.120
16297,0.122
16298,0.122
16299,0.124
16300,0.128
16301,0.132
16302,0.134
16303,0.134
16304,0.138
16305,0.142
16306,0.144
16307,0.144
16308,0.152
16309,0.156
16310,0.158
16311,0.158
16312,0.162
16313,0.166
16314,0.166
16315,0.170
16316,0.172
16317,0.170
16318,0.170
16319,0.168
16320,0.168
16321,0.166
16322,0.166
16323,0.160
16324,0.152
16325,0.148
16326,0.134
16327,0.126
16328,0.114
16329,0.108
16330,0.100
16331,0.094
16332,0.088
16333,0.086
16334,0.084
16335,0.080
16336,0.078
16337,0.076
16338,0.080
16339,0.074
16340,0.072
16341,0.076
16342,0.076
16343,0.076
16344,0.074
16345,0.076
16346,0.078
16347,0.080
16348,0.082
16349,0.082
16350,0.088
16351,0.090
16352,0.088
16353,0.088
16354,0.088
16355,0.090
16356,0.088
16357,0.094
16358,0.096
16359,0.096
16360,0.092
16361,0.094
16362,0.094
16363,0.100
16364,0.098
16365,0.096
16366,0.098
16367,0.100
16368,0.104
16369,0.102
16370,0.104
16371,0.104
16372,0.108
16373,0.102
16374,0.106
16375,0.110
16376,0.106
16377,0.106
16378,0.106
16379,0.110
16380,0.106
16381,0.106
16382,0.108
16383,0.114
16384,0.116
16385,0.116
16386,0.114
16387,0.120
16388,0.126
16389,0.122
16390,0.126
16391,0.132
16392,0.136
16393,0.144
16394,0.144
16395,0.142
16396,0.142
16397,0.140
16398,0.142
16399,0.140
16400,0.140
16401,0.138
16402,0.134
16403,0.128
16404,0.128
16405,0.120
16406,0.120
16407,0.114
16408,0.112
16409,0.106
16410,0.104
16411,0.098
16412,0.100
16413,0.100
16414,0.102
16415,0.096
16416,0.096
16417,0.098
16418,0.098
16419,0.096
16420,0.096
16421,0.098
16422,0.098
16423,0.100
16424,0.100
16425,0.104
16426,0.104
16427,0.104
16428,0.104
16429,0.102
16430,0.086
16431,0.064
16432,0.052
16433,0.056
16434,0.082
16435,0.146
16436,0.256
16437,0.390
16438,0.528
16439,0.658
16440,0.752
16441,0.784
16442,0.632
16443,0.416
16444,0.226
16445,0.104
16446,0.066
16447,0.056
16448,0.054
16449,0.050
16450,0.058
16451,0.072
16452,0.078
16453,0.078
16454,0.080
16455,0.076
16456,0.074
16457,0.074
16458,0.078
16459,0.076
16460,0.078
16461,0.078
16462,0.080
16463,0.086
16464,0.084
16465,0.088
16466,0.088
16467,0.092
16468,0.096
16469,0.094
16470,0.096
16471,0.100
16472,0.100
16473,0.100
16474,0.102
16475,0.104
16476,0.106
16477,0.112
16478,0.110
16479,0.114
16480,0.114
16481,0.116
16482,0.120
16483,0.120
16484,0.124
16485,0.124
16486,0.128
16487,0.132
16488,0.134
16489,0.134
16490,0.136
16491,0.138
16492,0.144
16493,0.144
16494,0.146
16495,0.146
16496,0.152
16497,0.154
16498,0.154
16499,0.156
16500,0.164
16501,0.166
16502,0.162
16503,0.166
16504,0.168
16505,0.168
16506,0.164
16507,0.166
16508,0.164
16509,0.160
16510,0.156
16511,0.148
16512,0.144
16513,0.132
16514,0.126
16515,0.114
16516,0.112
16517,0.104
16518,0.096
16519,0.088
16520,0.082
16521,0.080
16522,0.080
16523,0.080
16524,0.076
16525,0.074
16526,0.076
16527,0.076
16528,0.078
16529,0.080
16530,0.082
16531,0.090
16532,0.080
16533,0.084
16534,0.084
16535,0.088
16536,0.088
16537,0.088
16538,0.088
16539,0.092
16540,0.092
16541,0.092
16542,0.094
16543,0.096
16544,0.096
16545,0.096
16546,0.098
16547,0.100
16548,0.098
16549,0.100
16550,0.100
16551,0.098
16552,0.100
16553,0.104
16554,0.100
16555,0.104
16556,0.106
16557,0.104
16558,0.104
16559,0.108
16560,0.106
16561,0.108
16562,0.106
16563,0.112
16564,0.106
16565,0.108
16566,0.110
16567,0.104
16568,0.108
16569,0.108
16570,0.106
16571,0.110
16572,0.108
16573,0.110
16574,0.108
16575,0.116
16576,0.118
16577,0.120
16578,0.120
16579,0.124
16580,0.128
16581,0.130
16582,0.134
16583,0.132
16584,0.144
16585,0.150
16586,0.148
16587,0.146
16588,0.150
16589,0.144
16590,0.144
16591,0.150
16592,0.148
16593,0.144
16594,0.138
16595,0.134
16596,0.128
16597,0.122
16598,0.122
16599,0.116
16600,0.114
16601,0.112
16602,0.104
16603,0.104
16604,0.106
16605,0.106
16606,0.104
16607,0.102
16608,0.102
16609,0.100
16610,0.100
16611,0.100
16612,0.104
16613,0.102
16614,0.102
16615,0.102
16616,0.104
16617,0.106
16618,0.108
16619,0.106
16620,0.106
16621,0.112
16622,0.088
16623,0.068
16624,0.056
16625,0.052
16626,0.076
16627,0.132
16628,0.226
16629,0.364
16630,0.504
16631,0.638
16632,0.734
16633,0.792
16634,0.676
16635,0.454
16636,0.258
16637,0.120
16638,0.068
16639,0.056
16640,0.054
16641,0.052
16642,0.054
16643,0.070
16644,0.078
16645,0.078
16646,0.082
16647,0.080
16648,0.074
16649,0.078
16650,0.078
16651,0.078
16652,0.082
16653,0.086
16654,0.088
16655,0.088
16656,0.086
16657,0.092
16658,0.088
16659,0.094
16660,0.094
16661,0.094
16662,0.096
16663,0.100
16664,0.102
16665,0.102
16666,0.104
16667,0.110
16668,0.112
16669,0.110
16670,0.112
16671,0.116
16672,0.114
16673,0.118
16674,0.116
16675,0.122
16676,0.124
16677,0.128
16678,0.128
16679,0.128
16680,0.132
16681,0.136
16682,0.132
16683,0.138
16684,0.140
16685,0.140
16686,0.140
16687,0.144
16688,0.148
16689,0.152
16690,0.150
16691,0.156
16692,0.162
16693,0.160
16694,0.158
16695,0.160
16696,0.160
16697,0.164
16698,0.162
16699,0.160
16700,0.156
16701,0.158
16702,0.152
16703,0.148
16704,0.144
16705,0.134
16706,0.130
16707,0.120
16708,0.114
16709,0.108
16710,0.100
16711,0.096
16712,0.088
16713,0.088
16714,0.088
16715,0.080
16716,0.080
16717,0.080
16718,0.082
16719,0.080
16720,0.080
16721,0.086
16722,0.082
16723,0.086
16724,0.080
16725,0.086
16726,0.084
16727,0.086
16728,0.086
16729,0.090
16730,0.096
16731,0.096
16732,0.094
16733,0.094
16734,0.100
16735,0.090
16736,0.096
16737,0.098
16738,0.098
16739,0.096
16740,0.100
16741,0.098
16742,0.104
16743,0.104
16744,0.104
16745,0.102
16746,0.106
16747,0.106
16748,0.104
16749,0.108
16750,0.110
16751,0.112
16752,0.110
16753,0.110
16754,0.108
16755,0.108
16756,0.106
16757,0.106
16758,0.106
16759,0.110
16760,0.110
16761,0.110
16762,0.112
16763,0.112
16764,0.112
16765,0.112
16766,0.112
16767,0.118
16768,0.118
16769,0.122
16770,0.120
16771,0.122
16772,0.124
16773,0.122
16774,0.128
16775,0.128
16776,0.136
16777,0.142
16778,0.146
16779,0.150
16780,0.152
16781,0.146
16782,0.142
16783,0.146
16784,0.146
16785,0.148
16786,0.144
16787,0.138
16788,0.134
16789,0.132
16790,0.120
16791,0.120
16792,0.124
16793,0.120
16794,0.110
16795,0.112
16796,0.104
16797,0.106
16798,0.104
16799,0.106
16800,0.104
16801,0.104
16802,0.102
16803,0.100
16804,0.102
16805,0.104
16806,0.104
16807,0.100
16808,0.102
16809,0.104
16810,0.106
16811,0.106
16812,0.106
16813,0.108
16814,0.102
16815,0.088
16816,0.068
16817,0.056
16818,0.056
16819,0.074
16820,0.128
16821,0.224
16822,0.366
16823,0.504
16824,0.630
16825,0.730
16826,0.776
16827,0.640
16828,0.426
16829,0.236
16830,0.106
16831,0.062
16832,0.048
16833,0.048
16834,0.050
16835,0.054
16836,0.062
16837,0.074
16838,0.084
16839,0.086
16840,0.082
16841,0.084
16842,0.082
16843,0.086
16844,0.084
16845,0.084
16846,0.088
16847,0.088
16848,0.088
16849,0.088
16850,0.096
16851,0.100
16852,0.096
16853,0.098
16854,0.102
16855,0.104
16856,0.106
16857,0.106
16858,0.108
16859,0.114
16860,0.116
16861,0.118
16862,0.114
16863,0.120
16864,0.120
16865,0.120
16866,0.120
16867,0.126
16868,0.128
16869,0.128
16870,0.128
16871,0.134
16872,0.130
16873,0.132
16874,0.136
16875,0.140
16876,0.144
16877,0.144
16878,0.146
16879,0.148
16880,0.152
16881,0.152
16882,0.152
16883,0.154
16884,0.154
16885,0.154
16886,0.158
16887,0.156
16888,0.158
16889,0.160
16890,0.156
16891,0.158
16892,0.152
16893,0.158
16894,0.146
16895,0.148
16896,0.144
16897,0.138
16898,0.128
16899,0.120
16900,0.118
16901,0.112
16902,0.104
16903,0.100
16904,0.096
16905,0.094
16906,0.094
16907,0.086
16908,0.080
16909,0.088
16910,0.086
16911,0.080
16912,0.086
16913,0.084
16914,0.084
16915,0.082
16916,0.088
16917,0.086
16918,0.088
16919,0.090
16920,0.088
16921,0.090
16922,0.092
16923,0.090
16924,0.094
16925,0.100
16926,0.100
16927,0.098
16928,0.098
16929,0.096
16930,0.098
16931,0.100
16932,0.102
16933,0.096
16934,0.102
16935,0.104
16936,0.102
16937,0.106
16938,0.112
16939,0.106
16940,0.106
16941,0.102
16942,0.110
16943,0.106
16944,0.106
16945,0.108
16946,0.110
16947,0.112
16948,0.108
16949,0.108
16950,0.112
16951,0.112
16952,0.106
16953,0.108
16954,0.108
16955,0.112
16956,0.108
16957,0.106
16958,0.112
16959,0.108
16960,0.112
16961,0.114
16962,0.116
16963,0.120
16964,0.122
16965,0.124
16966,0.122
16967,0.128
16968,0.134
16969,0.134
16970,0.138
16971,0.144
16972,0.152
16973,0.146
16974,0.148
16975,0.152
16976,0.148
16977,0.150
16978,0.148
16979,0.144
16980,0.140
16981,0.136
16982,0.132
16983,0.128
16984,0.126
16985,0.120
16986,0.116
16987,0.116
16988,0.108
16989,0.106
16990,0.106
16991,0.102
16992,0.104
16993,0.106
16994,0.102
16995,0.096
16996,0.102
16997,0.106
16998,0.102
16999,0.104
17000,0.102
17001,0.104
17002,0.100
17003,0.104
17004,0.102
17005,0.106
17006,0.108
17007,0.106
17008,0.094
17009,0.076
17010,0.064
17011,0.048
17012,0.058
17013,0.094
17014,0.158
17015,0.280
17016,0.416
17017,0.552
17018,0.674
17019,0.762
17020,0.748
17021,0.568
17022,0.360
17023,0.180
17024,0.086
17025,0.056
17026,0.056
17027,0.052
17028,0.054
17029,0.058
17030,0.078
17031,0.080
17032,0.082
17033,0.080
17034,0.080
17035,0.082
17036,0.078
17037,0.076
17038,0.080
17039,0.082
17040,0.084
17041,0.086
17042,0.088
17043,0.088
17044,0.092
17045,0.090
17046,0.096
17047,0.096
17048,0.098
17049,0.098
17050,0.100
17051,0.104
17052,0.106
17053,0.102
17054,0.108
17055,0.112
17056,0.114
17057,0.112
17058,0.116
17059,0.118
17060,0.120
17061,0.120
17062,0.122
17063,0.122
17064,0.124
17065,0.128
17066,0.128
17067,0.132
17068,0.138
17069,0.136
17070,0.134
17071,0.142
17072,0.146
17073,0.146
17074,0.146
17075,0.150
17076,0.148
17077,0.154
17078,0.156
17079,0.154
17080,0.154
17081,0.158
17082,0.158
17083,0.154
17084,0.160
17085,0.156
17086,0.152
17087,0.152
17088,0.152
17089,0.148
17090,0.142
17091,0.134
17092,0.128
17093,0.124
17094,0.114
17095,0.106
17096,0.100
17097,0.098
17098,0.094
17099,0.088
17100,0.084
17101,0.086
17102,0.080
17103,0.080
17104,0.076
17105,0.078
17106,0.080
17107,0.080
17108,0.076
17109,0.078
17110,0.080
17111,0.080
17112,0.080
17113,0.084
17114,0.084
17115,0.088
17116,0.088
17117,0.088
17118,0.090
17119,0.092
17120,0.098
17121,0.092
17122,0.096
17123,0.102
17124,0.096
17125,0.096
17126,0.100
17127,0.100
17128,0.100
17129,0.100
17130,0.104
17131,0.104
17132,0.104
17133,0.104
17134,0.106
17135,0.104
17136,0.106
17137,0.106
17138,0.104
17139,0.106
17140,0.104
17141,0.102
17142,0.104
17143,0.108
17144,0.104
17145,0.108
17146,0.106
17147,0.108
17148,0.104
17149,0.108
17150,0.108
17151,0.108
17152,0.108
17153,0.106
17154,0.104
17155,0.108
17156,0.112
17157,0.112
17158,0.114
17159,0.120
17160,0.122
17161,0.118
17162,0.122
17163,0.124
17164,0.128
17165,0.134
17166,0.134
17167,0.142
17168,0.148
17169,0.150
17170,0.144
17171,0.146
17172,0.146
17173,0.148
17174,0.146
17175,0.144
17176,0.140
17177,0.136
17178,0.132
17179,0.126
17180,0.120
17181,0.122
17182,0.124
17183,0.112
17184,0.112
17185,0.106
17186,0.102
17187,0.102
17188,0.102
17189,0.100
17190,0.104
17191,0.102
17192,0.114
17193,0.098
17194,0.100
17195,0.100
17196,0.104
17197,0.102
17198,0.104
17199,0.100
17200,0.100
17201,0.108
17202,0.106
17203,0.104
17204,0.096
17205,0.080
17206,0.062
17207,0.048
17208,0.056
17209,0.094
17210,0.162
17211,0.280
17212,0.414
17213,0.558
17214,0.678
17215,0.768
17216,0.762
17217,0.584
17218,0.376
17219,0.194
17220,0.092
17221,0.066
17222,0.056
17223,0.056
17224,0.050
17225,0.060
17226,0.074
17227,0.080
17228,0.078
17229,0.076
17230,0.078
17231,0.076
17232,0.074
17233,0.076
17234,0.080
17235,0.080
17236,0.080
17237,0.082
17238,0.084
17239,0.086
17240,0.088
17241,0.088
17242,0.092
17243,0.096
17244,0.098
17245,0.096
17246,0.100
17247,0.100
17248,0.108
17249,0.104
17250,0.108
17251,0.108
17252,0.112
17253,0.112
17254,0.114
17255,0.114
17256,0.118
17257,0.118
17258,0.120
17259,0.122
17260,0.126
17261,0.124
17262,0.128
17263,0.130
17264,0.130
17265,0.136
17266,0.136
17267,0.138
17268,0.144
17269,0.144
17270,0.146
17271,0.146
17272,0.150
17273,0.150
17274,0.150
17275,0.152
17276,0.154
17277,0.154
17278,0.152
17279,0.158
17280,0.156
17281,0.156
17282,0.154
17283,0.152
17284,0.150
17285,0.144
17286,0.138
17287,0.136
17288,0.128
17289,0.120
17290,0.112
17291,0.112
17292,0.104
17293,0.096
17294,0.096
17295,0.088
17296,0.082
17297,0.086
17298,0.086
17299,0.080
17300,0.078
17301,0.092
17302,0.092
17303,0.076
17304,0.080
17305,0.082
17306,0.086
17307,0.082
17308,0.084
17309,0.088
17310,0.092
17311,0.094
17312,0.088
17313,0.094
17314,0.090
17315,0.094
17316,0.096
17317,0.096
17318,0.096
17319,0.096
17320,0.100
17321,0.100
17322,0.096
17323,0.100
17324,0.102
17325,0.104
17326,0.104
17327,0.104
17328,0.102
17329,0.108
17330,0.106
17331,0.108
17332,0.106
17333,0.108
17334,0.108
17335,0.112
17336,0.110
17337,0.106
17338,0.106
17339,0.106
17340,0.108
17341,0.104
17342,0.106
17343,0.110
17344,0.106
17345,0.104
17346,0.106
17347,0.110
17348,0.108
17349,0.106
17350,0.110
17351,0.110
17352,0.112
17353,0.112
17354,0.108
17355,0.112
17356,0.114
17357,0.114
17358,0.114
17359,0.122
17360,0.126
17361,0.124
17362,0.126
17363,0.130
17364,0.134
17365,0.136
17366,0.140
17367,0.146
17368,0.150
17369,0.148
17370,0.148
17371,0.144
17372,0.146
17373,0.148
17374,0.148
17375,0.144
17376,0.144
17377,0.140
17378,0.134
17379,0.126
17380,0.128
17381,0.120
17382,0.116
17383,0.112
17384,0.110
17385,0.106
17386,0.104
17387,0.102
17388,0.104
17389,0.106
17390,0.102
17391,0.100
17392,0.100
17393,0.104
17394,0.102
17395,0.102
17396,0.104
17397,0.102
17398,0.104
17399,0.102
17400,0.104
17401,0.106
17402,0.108
17403,0.104
17404,0.094
17405,0.080
17406,0.064
17407,0.048
17408,0.056
17409,0.090
17410,0.162
17411,0.274
17412,0.406
17413,0.542
17414,0.662
17415,0.750
17416,0.752
17417,0.582
17418,0.380
17419,0.204
17420,0.094
17421,0.064
17422,0.060
17423,0.056
17424,0.048
17425,0.060
17426,0.072
17427,0.078
17428,0.078
17429,0.076
17430,0.080
17431,0.082
17432,0.076
17433,0.078
17434,0.082
17435,0.080
17436,0.082
17437,0.082
17438,0.088
17439,0.088
17440,0.088
17441,0.090
17442,0.094
17443,0.096
17444,0.094
17445,0.096
17446,0.096
17447,0.104
17448,0.104
17449,0.104
17450,0.108
17451,0.110
17452,0.112
17453,0.112
17454,0.114
17455,0.118
17456,0.114
17457,0.122
17458,0.120
17459,0.122
17460,0.128
17461,0.126
17462,0.126
17463,0.130
17464,0.136
17465,0.136
17466,0.136
17467,0.138
17468,0.144
17469,0.144
17470,0.144
17471,0.144
17472,0.148
17473,0.152
17474,0.152
17475,0.152
17476,0.152
17477,0.154
17478,0.158
17479,0.152
17480,0.158
17481,0.152
17482,0.152
17483,0.150
17484,0.148
17485,0.144
17486,0.142
17487,0.136
17488,0.132
17489,0.122
17490,0.118
17491,0.106
17492,0.102
17493,0.096
17494,0.096
17495,0.088
17496,0.088
17497,0.086
17498,0.082
17499,0.080
17500,0.088
17501,0.082
17502,0.082
17503,0.084
17504,0.080
17505,0.088
17506,0.088
17507,0.086
17508,0.088
17509,0.088
17510,0.090
17511,0.088
17512,0.088
17513,0.090
17514,0.094
17515,0.096
17516,0.096
17517,0.096
17518,0.098
17519,0.104
17520,0.100
17521,0.100
17522,0.104
17523,0.098
17524,0.098
17525,0.102
17526,0.104
17527,0.104
17528,0.102
17529,0.104
17530,0.102
17531,0.112
17532,0.108
17533,0.104
17534,0.110
17535,0.112
17536,0.108
17537,0.106
17538,0.106
17539,0.108
17540,0.104
17541,0.108
17542,0.104
17543,0.106
17544,0.108
17545,0.110
17546,0.108
17547,0.110
17548,0.112
17549,0.108
17550,0.110
17551,0.114
17552,0.116
17553,0.110
17554,0.112
17555,0.118
17556,0.118
17557,0.120
17558,0.120
17559,0.118
17560,0.126
17561,0.128
17562,0.128
17563,0.134
17564,0.138
17565,0.140
17566,0.144
17567,0.148
17568,0.152
17569,0.150
17570,0.148
17571,0.148
17572,0.146
17573,0.152
17574,0.152
17575,0.144
17576,0.140
17577,0.134
17578,0.126
17579,0.120
17580,0.122
17581,0.120
17582,0.114
17583,0.108
17584,0.104
17585,0.106
17586,0.108
17587,0.104
17588,0.102
17589,0.100
17590,0.104
17591,0.096
17592,0.098
17593,0.104
17594,0.104
17595,0.104
17596,0.104
17597,0.106
17598,0.108
17599,0.106
17600,0.106
17601,0.110
17602,0.110
17603,0.096
17604,0.072
17605,0.060
17606,0.056
17607,0.068
17608,0.104
17609,0.192
17610,0.318
17611,0.458
17612,0.586
17613,0.696
17614,0.760
17615,0.678
17616,0.478
17617,0.296
17618,0.148
17619,0.082
17620,0.056
17621,0.048
17622,0.054
17623,0.056
17624,0.056
17625,0.072
17626,0.082
17627,0.082
17628,0.080
17629,0.082
17630,0.086
17631,0.086
17632,0.084
17633,0.084
17634,0.088
17635,0.090
17636,0.094
17637,0.088
17638,0.090
17639,0.096
17640,0.100
17641,0.098
17642,0.104
17643,0.112
17644,0.106
17645,0.110
17646,0.106
17647,0.112
17648,0.114
17649,0.112
17650,0.112
17651,0.118
17652,0.120
17653,0.120
17654,0.122
17655,0.124
17656,0.126
17657,0.124
17658,0.128
17659,0.126
17660,0.130
17661,0.130
17662,0.136
17663,0.136
17664,0.138
17665,0.140
17666,0.144
17667,0.142
17668,0.144
17669,0.144
17670,0.146
17671,0.146
17672,0.152
17673,0.152
17674,0.156
17675,0.152
17676,0.154
17677,0.152
17678,0.152
17679,0.150
17680,0.148
17681,0.144
17682,0.144
17683,0.138
17684,0.142
17685,0.134
17686,0.128
17687,0.124
17688,0.120
17689,0.112
17690,0.108
17691,0.102
17692,0.098
17693,0.096
17694,0.090
17695,0.088
17696,0.088
17697,0.088
17698,0.088
17699,0.084
17700,0.086
17701,0.086
17702,0.088
17703,0.086
17704,0.088
17705,0.092
17706,0.096
17707,0.094
17708,0.090
17709,0.094
17710,0.096
17711,0.096
17712,0.098
17713,0.100
17714,0.098
17715,0.102
17716,0.102
17717,0.098
17718,0.102
17719,0.104
17720,0.102
17721,0.106
17722,0.106
17723,0.108
17724,0.108
17725,0.106
17726,0.110
17727,0.108
17728,0.108
17729,0.106
17730,0.106
17731,0.108
17732,0.108
17733,0.112
17734,0.112
17735,0.112
17736,0.114
17737,0.112
17738,0.112
17739,0.114
17740,0.112
17741,0.110
17742,0.110
17743,0.112
17744,0.108
17745,0.110
17746,0.112
17747,0.112
17748,0.112
17749,0.112
17750,0.104
17751,0.112
17752,0.114
17753,0.118
17754,0.120
17755,0.124
17756,0.126
17757,0.124
17758,0.128
17759,0.128
17760,0.134
17761,0.138
17762,0.144
17763,0.146
17764,0.150
17765,0.152
17766,0.144
17767,0.146
17768,0.150
17769,0.148
17770,0.148
17771,0.148
17772,0.140
17773,0.136
17774,0.128
17775,0.122
17776,0.120
17777,0.126
17778,0.116
17779,0.114
17780,0.110
17781,0.108
17782,0.108
17783,0.102
17784,0.108
17785,0.106
17786,0.104
17787,0.104
17788,0.104
17789,0.104
17790,0.104
17791,0.104
17792,0.104
17793,0.106
17794,0.110
17795,0.108
17796,0.106
17797,0.108
17798,0.110
17799,0.092
17800,0.074
17801,0.062
17802,0.054
17803,0.062
17804,0.096
17805,0.168
17806,0.292
17807,0.432
17808,0.566
17809,0.684
17810,0.760
17811,0.720
17812,0.530
17813,0.334
17814,0.174
17815,0.088
17816,0.056
17817,0.052
17818,0.056
17819,0.052
17820,0.058
17821,0.072
17822,0.080
17823,0.088
17824,0.086
17825,0.080
17826,0.082
17827,0.082
17828,0.084
17829,0.084
17830,0.086
17831,0.092
17832,0.092
17833,0.094
17834,0.096
17835,0.096
17836,0.098
17837,0.096
17838,0.098
17839,0.102
17840,0.104
17841,0.104
17842,0.104
17843,0.108
17844,0.110
17845,0.112
17846,0.114
17847,0.120
17848,0.120
17849,0.122
17850,0.120
17851,0.122
17852,0.126
17853,0.126
17854,0.122
17855,0.132
17856,0.132
17857,0.136
17858,0.136
17859,0.142
17860,0.138
17861,0.140
17862,0.140
17863,0.142
17864,0.146
17865,0.148
17866,0.148
17867,0.148
17868,0.158
17869,0.158
17870,0.154
17871,0.156
17872,0.154
17873,0.156
17874,0.152
17875,0.152
17876,0.150
17877,0.146
17878,0.148
17879,0.144
17880,0.138
17881,0.134
17882,0.130
17883,0.120
17884,0.116
17885,0.112
17886,0.104
17887,0.096
17888,0.096
17889,0.096
17890,0.088
17891,0.082
17892,0.086
17893,0.084
17894,0.088
17895,0.082
17896,0.080
17897,0.082
17898,0.084
17899,0.084
17900,0.086
17901,0.086
17902,0.086
17903,0.088
17904,0.088
17905,0.090
17906,0.088
17907,0.088
17908,0.094
17909,0.088
17910,0.096
17911,0.096
17912,0.096
17913,0.098
17914,0.102
17915,0.100
17916,0.098
17917,0.100
17918,0.106
17919,0.104
17920,0.108
17921,0.108
17922,0.108
17923,0.110
17924,0.112
17925,0.108
17926,0.108
17927,0.112
17928,0.114
17929,0.112
17930,0.112
17931,0.112
17932,0.112
17933,0.112
17934,0.114
17935,0.114
17936,0.112
17937,0.112
17938,0.108
17939,0.110
17940,0.112
17941,0.112
17942,0.110
17943,0.112
17944,0.112
17945,0.112
17946,0.108
17947,0.114
17948,0.114
17949,0.114
17950,0.122
17951,0.124
17952,0.126
17953,0.128
17954,0.128
17955,0.132
17956,0.136
17957,0.136
17958,0.140
17959,0.146
17960,0.150
17961,0.150
17962,0.144
17963,0.144
17964,0.144
17965,0.150
17966,0.146
17967,0.144
17968,0.142
17969,0.136
17970,0.128
17971,0.124
17972,0.120
17973,0.120
17974,0.112
17975,0.112
17976,0.110
17977,0.112
17978,0.106
17979,0.104
17980,0.102
17981,0.102
17982,0.104
17983,0.104
17984,0.102
17985,0.104
17986,0.104
17987,0.102
17988,0.104
17989,0.106
17990,0.110
17991,0.106
17992,0.110
17993,0.108
17994,0.112
17995,0.102
17996,0.096
17997,0.066
17998,0.056
17999,0.056
18000,0.084
18001,0.144
18002,0.250
18003,0.386
18004,0.522
18005,0.650
18006,0.742
18007,0.784
18008,0.644
18009,0.434
18010,0.248
18011,0.118
18012,0.070
18013,0.062
18014,0.062
18015,0.060
18016,0.060
18017,0.072
18018,0.080
18019,0.080
18020,0.076
18021,0.076
18022,0.076
18023,0.076
18024,0.080
18025,0.080
18026,0.080
18027,0.086
18028,0.088
18029,0.086
18030,0.088
18031,0.090
18032,0.090
18033,0.096
18034,0.096
18035,0.096
18036,0.096
18037,0.100
18038,0.102
18039,0.104
18040,0.104
18041,0.108
18042,0.108
18043,0.112
18044,0.114
18045,0.120
18046,0.114
18047,0.120
18048,0.122
18049,0.124
18050,0.126
18051,0.126
18052,0.128
18053,0.132
18054,0.132
18055,0.132
18056,0.140
18057,0.142
18058,0.138
18059,0.144
18060,0.150
18061,0.152
18062,0.152
18063,0.154
18064,0.160
18065,0.158
18066,0.158
18067,0.160
18068,0.160
18069,0.160
18070,0.160
18071,0.160
18072,0.160
18073,0.158
18074,0.154
18075,0.152
18076,0.152
18077,0.144
18078,0.140
18079,0.128
18080,0.120
18081,0.112
18082,0.104
18083,0.096
18084,0.094
18085,0.088
18086,0.092
18087,0.086
18088,0.082
18089,0.080
18090,0.084
18091,0.076
18092,0.076
18093,0.078
18094,0.078
18095,0.078
18096,0.080
18097,0.080
18098,0.082
18099,0.086
18100,0.088
18101,0.088
18102,0.088
18103,0.088
18104,0.088
18105,0.090
18106,0.092
18107,0.092
18108,0.092
18109,0.096
18110,0.096
18111,0.098
18112,0.102
18113,0.098
18114,0.102
18115,0.104
18116,0.100
18117,0.100
18118,0.106
18119,0.108
18120,0.104
18121,0.100
18122,0.106
18123,0.106
18124,0.108
18125,0.106
18126,0.108
18127,0.110
18128,0.110
18129,0.106
18130,0.112
18131,0.112
18132,0.112
18133,0.108
18134,0.112
18135,0.112
18136,0.114
18137,0.112
18138,0.110
18139,0.112
18140,0.112
18141,0.112
18142,0.112
18143,0.110
18144,0.112
18145,0.112
18146,0.110
18147,0.114
18148,0.120
18149,0.120
18150,0.126
18151,0.128
18152,0.126
18153,0.130
18154,0.128
18155,0.134
18156,0.144
18157,0.140
18158,0.148
18159,0.150
18160,0.152
18161,0.152
18162,0.144
18163,0.150
18164,0.152
18165,0.152
18166,0.144
18167,0.140
18168,0.136
18169,0.136
18170,0.128
18171,0.122
18172,0.120
18173,0.124
18174,0.118
18175,0.110
18176,0.104
18177,0.108
18178,0.106
18179,0.108
18180,0.104
18181,0.104
18182,0.104
18183,0.104
18184,0.104
18185,0.108
18186,0.104
18187,0.106
18188,0.104
18189,0.106
18190,0.110
18191,0.106
18192,0.112
18193,0.112
18194,0.106
18195,0.096
18196,0.080
18197,0.064
18198,0.054
18199,0.064
18200,0.104
18201,0.178
18202,0.296
18203,0.432
18204,0.566
18205,0.674
18206,0.758
18207,0.728
18208,0.544
18209,0.348
18210,0.178
18211,0.088
18212,0.066
18213,0.058
18214,0.056
18215,0.056
18216,0.064
18217,0.076
18218,0.082
18219,0.082
18220,0.080
18221,0.080
18222,0.080
18223,0.080
18224,0.082
18225,0.084
18226,0.082
18227,0.086
18228,0.088
18229,0.086
18230,0.090
18231,0.096
18232,0.096
18233,0.096
18234,0.098
18235,0.102
18236,0.104
18237,0.102
18238,0.108
18239,0.108
18240,0.106
18241,0.108
18242,0.110
18243,0.112
18244,0.114
18245,0.118
18246,0.120
18247,0.120
18248,0.124
18249,0.126
18250,0.126
18251,0.128
18252,0.130
18253,0.132
18254,0.136
18255,0.136
18256,0.140
18257,0.146
18258,0.146
18259,0.146
18260,0.150
18261,0.152
18262,0.158
18263,0.156
18264,0.158
18265,0.162
18266,0.160
18267,0.170
18268,0.162
18269,0.162
18270,0.162
18271,0.160
18272,0.162
18273,0.160
18274,0.160
18275,0.154
18276,0.150
18277,0.150
18278,0.138
18279,0.130
18280,0.120
18281,0.118
18282,0.108
18283,0.102
18284,0.096
18285,0.092
18286,0.088
18287,0.086
18288,0.078
18289,0.080
18290,0.082
18291,0.076
18292,0.076
18293,0.080
18294,0.082
18295,0.080
18296,0.080
18297,0.080
18298,0.082
18299,0.086
18300,0.088
18301,0.084
18302,0.088
18303,0.092
18304,0.092
18305,0.092
18306,0.094
18307,0.096
18308,0.090
18309,0.092
18310,0.098
18311,0.094
18312,0.096
18313,0.102
18314,0.102
18315,0.104
18316,0.104
18317,0.102
18318,0.102
18319,0.108
18320,0.106
18321,0.104
18322,0.108
18323,0.112
18324,0.108
18325,0.106
18326,0.108
18327,0.108
18328,0.108
18329,0.112
18330,0.112
18331,0.108
18332,0.112
18333,0.112
18334,0.112
18335,0.112
18336,0.114
18337,0.112
18338,0.108
18339,0.108
18340,0.112
18341,0.112
18342,0.108
18343,0.112
18344,0.112
18345,0.112
18346,0.112
18347,0.112
18348,0.112
18349,0.120
18350,0.118
18351,0.120
18352,0.122
18353,0.124
18354,0.126
18355,0.128
18356,0.128
18357,0.132
18358,0.134
18359,0.138
18360,0.138
18361,0.148
18362,0.152
18363,0.146
18364,0.148
18365,0.154
18366,0.152
18367,0.150
18368,0.152
18369,0.150
18370,0.144
18371,0.142
18372,0.134
18373,0.128
18374,0.124
18375,0.124
18376,0.118
18377,0.114
18378,0.112
18379,0.110
18380,0.106
18381,0.110
18382,0.104
18383,0.106
18384,0.106
18385,0.104
18386,0.106
18387,0.104
18388,0.104
18389,0.104
18390,0.106
18391,0.108
18392,0.104
18393,0.108
18394,0.112
18395,0.110
18396,0.112
18397,0.104
18398,0.090
18399,0.074
18400,0.062
18401,0.054
18402,0.068
18403,0.108
18404,0.190
18405,0.320
18406,0.456
18407,0.584
18408,0.692
18409,0.754
18410,0.674
18411,0.478
18412,0.292
18413,0.142
18414,0.076
18415,0.056
18416,0.052
18417,0.058
18418,0.054
18419,0.062
18420,0.078
18421,0.082
18422,0.084
18423,0.088
18424,0.088
18425,0.084
18426,0.082
18427,0.086
18428,0.086
18429,0.086
18430,0.090
18431,0.088
18432,0.092
18433,0.096
18434,0.100
18435,0.098
18436,0.104
18437,0.102
18438,0.104
18439,0.104
18440,0.110
18441,0.108
18442,0.108
18443,0.114
18444,0.114
18445,0.116
18446,0.120
18447,0.120
18448,0.122
18449,0.124
18450,0.120
18451,0.122
18452,0.128
18453,0.130
18454,0.130
18455,0.130
18456,0.136
18457,0.134
18458,0.136
18459,0.138
18460,0.140
18461,0.146
18462,0.148
18463,0.144
18464,0.150
18465,0.154
18466,0.156
18467,0.152
18468,0.158
18469,0.164
18470,0.164
18471,0.162
18472,0.164
18473,0.162
18474,0.160
18475,0.160
18476,0.158
18477,0.158
18478,0.152
18479,0.148
18480,0.136
18481,0.136
18482,0.130
18483,0.116
18484,0.112
18485,0.104
18486,0.104
18487,0.096
18488,0.092
18489,0.088
18490,0.090
18491,0.086
18492,0.082
18493,0.082
18494,0.082
18495,0.082
18496,0.080
18497,0.082
18498,0.086
18499,0.088
18500,0.086
18501,0.086
18502,0.088
18503,0.086
18504,0.086
18505,0.088
18506,0.088
18507,0.094
18508,0.094
18509,0.094
18510,0.094
18511,0.096
18512,0.094
18513,0.098
18514,0.100
18515,0.096
18516,0.100
18517,0.100
18518,0.104
18519,0.104
18520,0.104
18521,0.104
18522,0.106
18523,0.112
18524,0.112
18525,0.108
18526,0.112
18527,0.114
18528,0.112
18529,0.110
18530,0.106
18531,0.108
18532,0.112
18533,0.108
18534,0.110
18535,0.112
18536,0.112
18537,0.112
18538,0.112
18539,0.112
18540,0.116
18541,0.112
18542,0.112
18543,0.112
18544,0.112
18545,0.112
18546,0.112
18547,0.112
18548,0.112
18549,0.120
18550,0.120
18551,0.120
18552,0.124
18553,0.122
18554,0.126
18555,0.126
18556,0.134
18557,0.136
18558,0.138
18559,0.140
18560,0.148
18561,0.150
18562,0.148
18563,0.144
18564,0.144
18565,0.146
18566,0.146
18567,0.144
18568,0.142
18569,0.138
18570,0.134
18571,0.128
18572,0.124
18573,0.120
18574,0.120
18575,0.112
18576,0.108
18577,0.112
18578,0.104
18579,0.106
18580,0.106
18581,0.106
18582,0.110
18583,0.104
18584,0.100
18585,0.104
18586,0.104
18587,0.104
18588,0.102
18589,0.108
18590,0.106
18591,0.106
18592,0.104
18593,0.108
18594,0.108
18595,0.106
18596,0.094
18597,0.072
18598,0.060
18599,0.050
18600,0.056
18601,0.094
18602,0.168
18603,0.290
18604,0.428
18605,0.562
18606,0.680
18607,0.760
18608,0.724
18609,0.526
18610,0.334
18611,0.176
18612,0.088
18613,0.052
18614,0.050
18615,0.050
18616,0.050
18617,0.054
18618,0.068
18619,0.080
18620,0.080
18621,0.086
18622,0.082
18623,0.082
18624,0.088
18625,0.084
18626,0.086
18627,0.086
18628,0.088
18629,0.084
18630,0.088
18631,0.094
18632,0.096
18633,0.096
18634,0.100
18635,0.098
18636,0.100
18637,0.104
18638,0.106
18639,0.106
18640,0.112
18641,0.112
18642,0.112
18643,0.116
18644,0.118
18645,0.118
18646,0.114
18647,0.120
18648,0.124
18649,0.124
18650,0.126
18651,0.126
18652,0.128
18653,0.134
18654,0.134
18655,0.136
18656,0.138
18657,0.142
18658,0.144
18659,0.142
18660,0.144
18661,0.146
18662,0.152
18663,0.152
18664,0.150
18665,0.152
18666,0.160
18667,0.156
18668,0.156
18669,0.158
18670,0.160
18671,0.156
18672,0.160
18673,0.160
18674,0.156
18675,0.150
18676,0.144
18677,0.142
18678,0.136
18679,0.130
18680,0.120
18681,0.114
18682,0.112
18683,0.104
18684,0.098
18685,0.096
18686,0.096
18687,0.092
18688,0.086
18689,0.086
18690,0.086
18691,0.080
18692,0.082
18693,0.082
18694,0.084
18695,0.082
18696,0.080
18697,0.080
18698,0.086
18699,0.088
18700,0.086
18701,0.088
18702,0.088
18703,0.094
18704,0.088
18705,0.088
18706,0.088
18707,0.096
18708,0.094
18709,0.096
18710,0.094
18711,0.096
18712,0.102
18713,0.096
18714,0.100
18715,0.104
18716,0.100
18717,0.100
18718,0.102
18719,0.110
18720,0.108
18721,0.108
18722,0.110
18723,0.110
18724,0.108
18725,0.110
18726,0.110
18727,0.108
18728,0.112
18729,0.110
18730,0.110
18731,0.112
18732,0.112
18733,0.112
18734,0.110
18735,0.110
18736,0.108
18737,0.112
18738,0.108
18739,0.108
18740,0.112
18741,0.112
18742,0.110
18743,0.112
18744,0.116
18745,0.120
18746,0.118
18747,0.120
18748,0.126
18749,0.128
18750,0.134
18751,0.132
18752,0.136
18753,0.140
18754,0.144
18755,0.148
18756,0.146
18757,0.148
18758,0.148
18759,0.146
18760,0.146
18761,0.144
18762,0.140
18763,0.140
18764,0.136
18765,0.130
18766,0.126
18767,0.122
18768,0.120
18769,0.116
18770,0.112
18771,0.108
18772,0.104
18773,0.106
18774,0.104
18775,0.104
18776,0.100
18777,0.104
18778,0.104
18779,0.102
18780,0.100
18781,0.098
18782,0.104
18783,0.100
18784,0.100
18785,0.102
18786,0.104
18787,0.106
18788,0.104
18789,0.104
18790,0.102
18791,0.084
18792,0.064
18793,0.056
18794,0.056
18795,0.080
18796,0.136
18797,0.246
18798,0.380
18799,0.524
18800,0.648
18801,0.744
18802,0.770
18803,0.616
18804,0.408
18805,0.224
18806,0.108
18807,0.068
18808,0.056
18809,0.056
18810,0.052
18811,0.056
18812,0.070
18813,0.080
18814,0.080
18815,0.080
18816,0.078
18817,0.076
18818,0.080
18819,0.084
18820,0.086
18821,0.084
18822,0.086
18823,0.090
18824,0.088
18825,0.090
18826,0.090
18827,0.092
18828,0.094
18829,0.098
18830,0.096
18831,0.102
18832,0.104
18833,0.102
18834,0.104
18835,0.110
18836,0.112
18837,0.112
18838,0.112
18839,0.114
18840,0.116
18841,0.120
18842,0.120
18843,0.120
18844,0.122
18845,0.130
18846,0.126
18847,0.128
18848,0.134
18849,0.134
18850,0.140
18851,0.138
18852,0.144
18853,0.146
18854,0.148
18855,0.148
18856,0.152
18857,0.156
18858,0.160
18859,0.160
18860,0.160
18861,0.164
18862,0.166
18863,0.160
18864,0.162
18865,0.164
18866,0.164
18867,0.162
18868,0.164
18869,0.160
18870,0.156
18871,0.152
18872,0.144
18873,0.140
18874,0.134
18875,0.120
18876,0.112
18877,0.102
18878,0.100
18879,0.092
18880,0.086
18881,0.086
18882,0.080
18883,0.078
18884,0.076
18885,0.074
18886,0.076
18887,0.076
18888,0.072
18889,0.072
18890,0.076
18891,0.076
18892,0.078
18893,0.074
18894,0.078
18895,0.082
18896,0.080
18897,0.080
18898,0.084
18899,0.088
18900,0.086
18901,0.084
18902,0.088
18903,0.088
18904,0.088
18905,0.088
18906,0.096
18907,0.090
18908,0.096
18909,0.098
18910,0.096
18911,0.096
18912,0.100
18913,0.104
18914,0.102
18915,0.104
18916,0.108
18917,0.104
18918,0.104
18919,0.108
18920,0.106
18921,0.104
18922,0.108
18923,0.108
18924,0.108
18925,0.108
18926,0.106
18927,0.110
18928,0.112
18929,0.110
18930,0.112
18931,0.108
18932,0.108
18933,0.110
18934,0.110
18935,0.112
18936,0.112
18937,0.108
18938,0.104
18939,0.112
18940,0.110
18941,0.112
18942,0.114
18943,0.118
18944,0.122
18945,0.124
18946,0.124
18947,0.124
18948,0.126
18949,0.130
18950,0.132
18951,0.136
18952,0.144
18953,0.150
18954,0.150
18955,0.148
18956,0.146
18957,0.146
18958,0.148
18959,0.144
18960,0.140
18961,0.142
18962,0.136
18963,0.132
18964,0.128
18965,0.120
18966,0.120
18967,0.120
18968,0.112
18969,0.108
18970,0.106
18971,0.104
18972,0.104
18973,0.104
18974,0.110
18975,0.104
18976,0.102
18977,0.104
18978,0.104
18979,0.104
18980,0.100
18981,0.106
18982,0.104
18983,0.104
18984,0.104
18985,0.104
18986,0.108
18987,0.106
18988,0.106
18989,0.096
18990,0.080
18991,0.064
18992,0.054
18993,0.060
18994,0.106
18995,0.184
18996,0.300
18997,0.438
18998,0.576
18999,0.690
19000,0.772
19001,0.736
19002,0.550
19003,0.352
19004,0.186
19005,0.092
19006,0.068
19007,0.066
19008,0.062
19009,0.056
19010,0.066
19011,0.078
19012,0.082
19013,0.080
19014,0.080
19015,0.078
19016,0.078
19017,0.080
19018,0.076
19019,0.080
19020,0.080
19021,0.082
19022,0.086
19023,0.086
19024,0.088
19025,0.088
19026,0.090
19027,0.094
19028,0.094
19029,0.100
19030,0.100
19031,0.096
19032,0.102
19033,0.104
19034,0.106
19035,0.106
19036,0.112
19037,0.112
19038,0.108
19039,0.114
19040,0.118
19041,0.116
19042,0.120
19043,0.120
19044,0.122
19045,0.130
19046,0.128
19047,0.128
19048,0.132
19049,0.138
19050,0.140
19051,0.138
19052,0.144
19053,0.148
19054,0.148
19055,0.150
19056,0.152
19057,0.158
19058,0.158
19059,0.160
19060,0.160
19061,0.164
19062,0.168
19063,0.168
19064,0.164
19065,0.168
19066,0.168
19067,0.164
19068,0.162
19069,0.160
19070,0.154
19071,0.148
19072,0.138
19073,0.128
19074,0.120
19075,0.114
19076,0.104
19077,0.098
19078,0.096
19079,0.088
19080,0.086
19081,0.078
19082,0.078
19083,0.078
19084,0.076
19085,0.076
19086,0.078
19087,0.076
19088,0.076
19089,0.078
19090,0.078
19091,0.082
19092,0.080
19093,0.084
19094,0.084
19095,0.082
19096,0.084
19097,0.080
19098,0.088
19099,0.086
19100,0.088
19101,0.090
19102,0.092
19103,0.094
19104,0.096
19105,0.096
19106,0.094
19107,0.096
19108,0.096
19109,0.096
19110,0.098
19111,0.102
19112,0.102
19113,0.102
19114,0.104
19115,0.104
19116,0.106
19117,0.104
19118,0.104
19119,0.106
19120,0.110
19121,0.112
19122,0.106
19123,0.108
19124,0.110
19125,0.108
19126,0.108
19127,0.112
19128,0.112
19129,0.108
19130,0.112
19131,0.112
19132,0.110
19133,0.108
19134,0.108
19135,0.104
19136,0.108
19137,0.110
19138,0.104
19139,0.110
19140,0.110
19141,0.108
19142,0.110
19143,0.112
19144,0.112
19145,0.112
19146,0.118
19147,0.120
19148,0.124
19149,0.128
19150,0.128
19151,0.128
19152,0.132
19153,0.134
19154,0.138
19155,0.138
19156,0.146
19157,0.152
19158,0.152
19159,0.150
19160,0.144
19161,0.152
19162,0.146
19163,0.146
19164,0.144
19165,0.144
19166,0.140
19167,0.130
19168,0.126
19169,0.124
19170,0.122
19171,0.120
19172,0.112
19173,0.112
19174,0.106
19175,0.108
19176,0.104
19177,0.102
19178,0.106
19179,0.106
19180,0.104
19181,0.104
19182,0.104
19183,0.104
19184,0.102
19185,0.102
19186,0.106
19187,0.104
19188,0.104
19189,0.108
19190,0.106
19191,0.112
19192,0.104
19193,0.096
19194,0.080
19195,0.066
19196,0.054
19197,0.062
19198,0.102
19199,0.178
19200,0.296
19201,0.424
19202,0.562
19203,0.672
19204,0.756
19205,0.726
19206,0.540
19207,0.344
19208,0.182
19209,0.086
19210,0.066
19211,0.064
19212,0.062
19213,0.056
19214,0.066
19215,0.078
19216,0.082
19217,0.080
19218,0.076
19219,0.080
19220,0.080
19221,0.078
19222,0.076
19223,0.078
19224,0.082
19225,0.088
19226,0.086
19227,0.088
19228,0.088
19229,0.090
19230,0.090
19231,0.090
19232,0.094
19233,0.096
19234,0.096
19235,0.100
19236,0.104
19237,0.104
19238,0.104
19239,0.112
19240,0.112
19241,0.114
19242,0.112
19243,0.114
19244,0.120
19245,0.116
19246,0.120
19247,0.124
19248,0.122
19249,0.128
19250,0.130
19251,0.128
19252,0.132
19253,0.136
19254,0.138
19255,0.136
19256,0.136
19257,0.144
19258,0.146
19259,0.154
19260,0.152
19261,0.160
19262,0.158
19263,0.160
19264,0.160
19265,0.164
19266,0.166
19267,0.162
19268,0.162
19269,0.166
19270,0.166
19271,0.166
19272,0.160
19273,0.160
19274,0.152
19275,0.144
19276,0.138
19277,0.130
19278,0.122
19279,0.112
19280,0.104
19281,0.096
19282,0.096
19283,0.088
19284,0.082
19285,0.078
19286,0.082
19287,0.080
19288,0.074
19289,0.076
19290,0.076
19291,0.078
19292,0.076
19293,0.076
19294,0.080
19295,0.080
19296,0.080
19297,0.082
19298,0.084
19299,0.088
19300,0.086
19301,0.086
19302,0.088
19303,0.092
19304,0.090
19305,0.092
19306,0.092
19307,0.096
19308,0.096
19309,0.096
19310,0.096
19311,0.096
19312,0.096
19313,0.096
19314,0.096
19315,0.100
19316,0.102
19317,0.102
19318,0.104
19319,0.098
19320,0.104
19321,0.106
19322,0.108
19323,0.106
19324,0.110
19325,0.110
19326,0.104
19327,0.112
19328,0.112
19329,0.108
19330,0.106
19331,0.108
19332,0.110
19333,0.112
19334,0.110
19335,0.108
19336,0.108
19337,0.114
19338,0.106
19339,0.108
19340,0.106
19341,0.112
19342,0.110
19343,0.112
19344,0.114
19345,0.112
19346,0.112
19347,0.112
19348,0.114
19349,0.112
19350,0.112
19351,0.112
19352,0.112
19353,0.120
19354,0.114
19355,0.114
19356,0.112
19357,0.118
19358,0.118
19359,0.126
19360,0.128
19361,0.128
19362,0.128
19363,0.128
19364,0.132
19365,0.136
19366,0.138
19367,0.144
19368,0.152
19369,0.152
19370,0.154
19371,0.154
19372,0.150
19373,0.150
19374,0.152
19375,0.148
19376,0.146
19377,0.142
19378,0.136
19379,0.132
19380,0.126
19381,0.120
19382,0.122
19383,0.116
19384,0.112
19385,0.106
19386,0.110
19387,0.104
19388,0.104
19389,0.104
19390,0.106
19391,0.104
19392,0.104
19393,0.104
19394,0.104
19395,0.104
19396,0.104
19397,0.104
19398,0.104
19399,0.108
19400,0.112
19401,0.110
19402,0.112
19403,0.112
19404,0.104
19405,0.090
19406,0.072
19407,0.058
19408,0.060
19409,0.076
19410,0.130
19411,0.236
19412,0.376
19413,0.514
19414,0.634
19415,0.728
19416,0.760
19417,0.604
19418,0.410
19419,0.234
19420,0.112
19421,0.064
19422,0.058
19423,0.052
19424,0.054
19425,0.056
19426,0.066
19427,0.076
19428,0.084
19429,0.086
19430,0.082
19431,0.080
19432,0.084
19433,0.082
19434,0.080
19435,0.096
19436,0.088
19437,0.090
19438,0.094
19439,0.094
19440,0.096
19441,0.096
19442,0.098
19443,0.098
19444,0.098
19445,0.104
19446,0.108
19447,0.108
19448,0.112
19449,0.112
19450,0.112
19451,0.112
19452,0.118
19453,0.114
19454,0.120
19455,0.120
19456,0.120
19457,0.126
19458,0.128
19459,0.128
19460,0.130
19461,0.132
19462,0.136
19463,0.136
19464,0.136
19465,0.142
19466,0.144
19467,0.144
19468,0.150
19469,0.150
19470,0.154
19471,0.156
19472,0.156
19473,0.160
19474,0.162
19475,0.164
19476,0.162
19477,0.164
19478,0.166
19479,0.168
19480,0.168
19481,0.164
19482,0.164
19483,0.160
19484,0.156
19485,0.152
19486,0.152
19487,0.144
19488,0.132
19489,0.128
19490,0.124
19491,0.116
19492,0.106
19493,0.102
19494,0.092
19495,0.088
19496,0.088
19497,0.082
19498,0.076
19499,0.080
19500,0.088
19501,0.080
19502,0.080
19503,0.080
19504,0.082
19505,0.080
19506,0.080
19507,0.086
19508,0.086
19509,0.088
19510,0.086
19511,0.088
19512,0.094
19513,0.090
19514,0.088
19515,0.090
19516,0.090
19517,0.096
19518,0.096
19519,0.098
19520,0.098
19521,0.102
19522,0.106
19523,0.098
19524,0.102
19525,0.102
19526,0.104
19527,0.104
19528,0.104
19529,0.112
19530,0.108
19531,0.110
19532,0.112
19533,0.110
19534,0.110
19535,0.106
19536,0.110
19537,0.112
19538,0.112
19539,0.114
19540,0.112
19541,0.112
19542,0.118
19543,0.112
19544,0.112
19545,0.118
19546,0.114
19547,0.112
19548,0.112
19549,0.112
19550,0.108
19551,0.114
19552,0.116
19553,0.114
19554,0.118
19555,0.114
19556,0.112
19557,0.114
19558,0.120
19559,0.124
19560,0.120
19561,0.128
19562,0.128
19563,0.126
19564,0.130
19565,0.130
19566,0.130
19567,0.138
19568,0.146
19569,0.146
19570,0.152
19571,0.152
19572,0.152
19573,0.144
19574,0.148
19575,0.152
19576,0.148
19577,0.146
19578,0.144
19579,0.142
19580,0.136
19581,0.132
19582,0.126
19583,0.122
19584,0.120
19585,0.118
19586,0.112
19587,0.112
19588,0.106
19589,0.108
19590,0.108
19591,0.104
19592,0.104
19593,0.104
19594,0.108
19595,0.110
19596,0.112
19597,0.108
19598,0.106
19599,0.108
19600,0.110
19601,0.108
19602,0.108
19603,0.114
19604,0.114
19605,0.112
19606,0.098
19607,0.072
19608,0.060
19609,0.054
19610,0.070
19611,0.112
19612,0.198
19613,0.328
19614,0.472
19615,0.598
19616,0.716
19617,0.778
19618,0.688
19619,0.480
19620,0.304
19621,0.152
19622,0.080
19623,0.056
19624,0.054
19625,0.056
19626,0.058
19627,0.058
19628,0.070
19629,0.080
19630,0.088
19631,0.084
19632,0.088
19633,0.088
19634,0.088
19635,0.084
19636,0.088
19637,0.088
19638,0.088
19639,0.096
19640,0.096
19641,0.096
19642,0.098
19643,0.100
19644,0.100
19645,0.102
19646,0.108
19647,0.106
19648,0.112
19649,0.106
19650,0.116
19651,0.110
19652,0.120
19653,0.120
19654,0.120
19655,0.122
19656,0.120
19657,0.122
19658,0.126
19659,0.128
19660,0.128
19661,0.128
19662,0.136
19663,0.134
19664,0.134
19665,0.138
19666,0.144
19667,0.144
19668,0.146
19669,0.146
19670,0.150
19671,0.152
19672,0.152
19673,0.154
19674,0.160
19675,0.164
19676,0.160
19677,0.160
19678,0.164
19679,0.166
19680,0.166
19681,0.166
19682,0.164
19683,0.166
19684,0.160
19685,0.156
19686,0.150
19687,0.148
19688,0.138
19689,0.128
19690,0.120
19691,0.116
19692,0.106
19693,0.102
19694,0.096
19695,0.088
19696,0.082
19697,0.084
19698,0.078
19699,0.074
19700,0.074
19701,0.074
19702,0.074
19703,0.076
19704,0.074
19705,0.072
19706,0.078
19707,0.078
19708,0.080
19709,0.078
19710,0.080
19711,0.084
19712,0.084
19713,0.080
19714,0.084
19715,0.086
19716,0.086
19717,0.088
19718,0.086
19719,0.088
19720,0.088
19721,0.090
19722,0.090
19723,0.096
19724,0.094
19725,0.094
19726,0.096
19727,0.096
19728,0.100
19729,0.102
19730,0.100
19731,0.104
19732,0.104
19733,0.104
19734,0.108
19735,0.104
19736,0.108
19737,0.112
19738,0.108
19739,0.104
19740,0.108
19741,0.106
19742,0.108
19743,0.106
19744,0.104
19745,0.108
19746,0.112
19747,0.104
19748,0.106
19749,0.106
19750,0.104
19751,0.106
19752,0.108
19753,0.110
19754,0.108
19755,0.108
19756,0.108
19757,0.112
19758,0.112
19759,0.114
19760,0.114
19761,0.120
19762,0.124
19763,0.122
19764,0.122
19765,0.130
19766,0.128
19767,0.138
19768,0.136
19769,0.144
19770,0.150
19771,0.150
19772,0.144
19773,0.144
19774,0.148
19775,0.150
19776,0.144
19777,0.140
19778,0.142
19779,0.136
19780,0.130
19781,0.124
19782,0.124
19783,0.122
19784,0.118
19785,0.112
19786,0.110
19787,0.108
19788,0.108
19789,0.100
19790,0.102
19791,0.104
19792,0.100
19793,0.102
19794,0.100
19795,0.100
19796,0.100
19797,0.102
19798,0.106
19799,0.104
19800,0.106
19801,0.104
19802,0.108
19803,0.106
19804,0.106
19805,0.110
19806,0.100
19807,0.082
19808,0.066
19809,0.054
19810,0.060
19811,0.100
19812,0.162
19813,0.276
19814,0.412
19815,0.554
19816,0.676
19817,0.768
19818,0.776
19819,0.604
19820,0.398
19821,0.216
19822,0.102
19823,0.068
19824,0.062
19825,0.058
19826,0.050
19827,0.058
19828,0.072
19829,0.080
19830,0.076
19831,0.076
19832,0.076
19833,0.078
19834,0.074
19835,0.076
19836,0.078
19837,0.080
19838,0.080
19839,0.080
19840,0.086
19841,0.088
19842,0.088
19843,0.090
19844,0.088
19845,0.096
19846,0.098
19847,0.098
19848,0.096
19849,0.102
19850,0.106
19851,0.104
19852,0.104
19853,0.106
19854,0.112
19855,0.112
19856,0.118
19857,0.120
19858,0.120
19859,0.122
19860,0.124
19861,0.128
19862,0.128
19863,0.130
19864,0.128
19865,0.132
19866,0.140
19867,0.144
19868,0.142
19869,0.146
19870,0.152
19871,0.152
19872,0.156
19873,0.160
19874,0.160
19875,0.162
19876,0.166
19877,0.166
19878,0.170
19879,0.172
19880,0.172
19881,0.168
19882,0.176
19883,0.170
19884,0.168
19885,0.166
19886,0.162
19887,0.156
19888,0.148
19889,0.140
19890,0.128
19891,0.120
19892,0.112
19893,0.104
19894,0.096
19895,0.090
19896,0.082
19897,0.082
19898,0.076
19899,0.076
19900,0.074
19901,0.074
19902,0.072
19903,0.074
19904,0.072
19905,0.076
19906,0.068
19907,0.076
19908,0.078
19909,0.076
19910,0.072
19911,0.076
19912,0.080
19913,0.082
19914,0.084
19915,0.084
19916,0.084
19917,0.088
19918,0.088
19919,0.088
19920,0.088
19921,0.092
19922,0.090
19923,0.092
19924,0.096
19925,0.096
19926,0.094
19927,0.096
19928,0.100
19929,0.098
19930,0.100
19931,0.102
19932,0.102
19933,0.108
19934,0.104
19935,0.104
19936,0.102
19937,0.110
19938,0.110
19939,0.110
19940,0.112
19941,0.112
19942,0.112
19943,0.110
19944,0.112
19945,0.112
19946,0.112
19947,0.112
19948,0.110
19949,0.108
19950,0.114
19951,0.112
19952,0.108
19953,0.108
19954,0.112
19955,0.108
19956,0.110
19957,0.110
19958,0.112
19959,0.112
19960,0.108
19961,0.110
19962,0.112
19963,0.112
19964,0.114
19965,0.112
19966,0.112
19967,0.116
19968,0.116
19969,0.120
19970,0.130
19971,0.132
19972,0.128
19973,0.128
19974,0.130
19975,0.140
19976,0.142
19977,0.148
19978,0.152
19979,0.154
19980,0.152
19981,0.144
19982,0.146
19983,0.152
19984,0.150
19985,0.144
19986,0.144
19987,0.140
19988,0.134
19989,0.134
19990,0.126
19991,0.124
19992,0.120
19993,0.114
19994,0.112
19995,0.114
